120,120,120,122,122,121,121,121,122,124,124,121,121,121,121,121,119,120,120,122,122,120,121,120,120,121,120,122,121,121,121,119,121,122,120,122,122,121,121,120,120,121,121,122,121,121,121,119,120,122,121,122,121,121,122,121,121,118,120,122,121,122,122,120,121,122,121,122,121,121,122,120,121,121,121,122,121,121,121,120,118,121,120,121,121,121,121,120,122,120,121,122,121,121,122,120,119,122,122,122,120,121,121,121,120,122,121,122,122,121,121,120,120,122,121,122,121,120,121,119,120,121,121,122,120,120,121,121
121,122,121,122,121,122,122,120,119,121,120,122,121,121,121,120,122,122,121,122,121,120,121,121,120,120,121,122,121,121,121,121,120,122,119,122,122,121,121,120,120,121,120,122,122,121,121,120,121,121,121,122,122,122,122,120,120,122,121,122,121,121,121,119,119,119,118,122,121,120,121,120,121,123,127,122,122,121,120,120,121,120,118,122,122,122,122,121,120,122,120,122,121,121,121,120,119,121,122,122,121,120,121,120,121,121,121,121,121,120,121,120,120,122,122,122,121,121,121,120,119,121,121,122,121,121,121,119
121,121,119,121,121,121,121,121,119,122,122,122,122,121,121,120,120,122,122,121,121,121,121,120,120,122,120,122,122,122,122,120,120,121,121,122,122,121,121,120,121,122,121,122,122,121,121,120,120,121,121,121,121,121,122,120,121,122,122,123,122,121,121,120,121,122,121,121,121,120,121,120,120,122,120,122,120,121,121,120,120,120,122,122,122,121,120,119,121,122,120,121,121,121,122,121,120,122,121,123,122,121,121,120,121,121,121,122,121,121,122,121,121,122,121,121,120,121,121,121,121,122,123,120,121,121,121,120
121,122,121,122,122,122,121,120,120,119,119,122,121,121,122,121,122,123,120,121,121,121,121,121,120,122,122,121,120,121,121,120,121,120,121,121,121,121,122,121,121,123,121,121,121,121,121,120,121,123,120,121,121,122,121,120,121,120,121,121,121,121,121,120,119,120,120,122,121,121,121,120,121,121,121,122,121,121,121,120,121,121,120,122,121,121,121,120,121,122,122,121,120,121,121,120,120,120,121,121,121,121,121,121,122,121,121,122,122,122,122,121,120,122,121,122,121,121,121,120,120,122,122,122,122,121,121,120
121,123,118,121,121,121,121,121,122,119,122,121,121,121,121,121,120,121,120,122,120,121,121,120,120,122,121,122,122,121,121,120,120,122,122,122,121,121,122,121,121,122,121,122,121,120,120,120,120,121,122,122,122,122,121,121,119,123,121,122,121,120,121,120,122,120,121,122,120,120,121,120,120,123,123,121,121,121,121,120,121,122,122,121,120,120,121,121,121,123,120,121,120,121,121,121,121,122,121,121,121,121,121,121,121,121,121,121,121,121,122,120,121,121,120,121,121,121,121,121,120,120,119,121,121,121,122,120
120,122,122,122,120,121,121,120,122,121,120,121,121,121,122,120,120,122,121,122,121,121,121,120,121,122,121,122,121,122,122,121,121,122,122,122,120,121,121,120,119,118,120,122,121,121,122,120,121,124,121,122,120,121,121,120,121,123,126,122,121,120,121,120,121,121,118,121,121,121,122,121,121,121,120,121,121,120,120,120,119,121,122,123,121,121,121,120,121,122,120,123,121,120,120,120,120,121,121,123,121,121,122,121,122,122,122,121,120,120,121,121,121,122,121,121,121,121,121,121,122,122,122,122,120,121,121,120
120,122,121,122,122,121,120,120,120,121,121,121,121,121,121,119,120,121,119,121,121,121,122,120,119,120,122,122,122,121,121,120,122,123,121,122,121,120,121,120,121,121,120,121,121,121,122,121,121,122,121,121,120,121,121,121,120,122,121,122,121,121,121,121,121,122,121,121,120,121,121,120,121,122,118,122,121,121,122,121,122,120,124,122,121,120,121,120,120,123,119,122,121,121,122,119,120,120,119,120,121,121,122,120,122,122,121,122,122,121,121,120,120,122,120,122,121,122,122,120,120,121,121,122,121,121,120,120
121,122,121,121,121,121,121,121,120,120,122,122,122,121,121,120,121,122,119,122,121,120,121,120,120,121,121,122,120,121,121,120,121,122,122,122,121,122,121,119,120,122,121,121,121,121,122,121,121,121,121,123,122,121,121,121,121,122,121,121,120,120,121,121,121,122,122,122,121,120,121,120,120,120,122,122,121,121,120,120,121,122,121,122,121,121,121,121,120,122,120,122,122,121,121,120,121,123,123,122,120,121,121,121,120,121,119,122,121,122,122,120,120,119,123,121,121,121,122,121,123,123,118,121,121,121,122,121
119,119,120,122,121,121,121,120,120,122,122,122,121,120,121,120,121,122,121,121,120,121,121,121,120,121,121,122,122,121,120,120,120,121,121,122,122,121,121,120,120,122,119,121,121,121,122,120,121,121,121,122,121,121,121,121,120,123,122,122,121,121,122,121,120,120,121,122,121,121,122,120,122,122,120,121,121,121,121,121,120,122,121,122,121,122,122,120,121,122,123,121,121,121,122,121,119,122,119,122,121,122,122,120,122,120,120,121,121,121,122,121,118,123,125,122,121,121,121,120,120,121,119,121,121,121,121,121
119,120,120,122,121,122,122,120,120,122,122,122,122,121,121,120,121,122,122,123,121,120,121,120,120,122,122,122,121,120,121,120,121,122,120,121,121,121,122,120,120,119,121,122,122,121,121,120,120,122,121,122,122,121,120,120,120,121,118,121,121,121,121,120,120,121,121,122,121,121,122,120,121,123,122,122,121,121,121,120,120,121,121,121,121,121,121,120,120,120,118,121,121,121,122,120,120,123,121,121,121,121,121,120,121,122,122,122,122,122,122,120,121,122,120,122,120,121,121,120,121,121,122,122,120,121,121,120
120,121,121,121,121,121,122,121,121,121,120,121,121,121,121,121,120,122,121,122,121,121,121,120,119,119,120,122,121,121,121,120,120,121,118,122,121,121,121,120,120,120,124,122,121,120,121,120,120,122,119,121,121,121,121,120,121,122,120,121,121,121,121,121,121,121,121,122,121,121,121,121,121,122,120,122,122,121,121,120,121,122,121,122,122,122,122,120,121,122,121,122,122,122,121,120,119,120,122,122,121,120,121,121,121,123,121,122,121,120,121,120,120,122,121,122,122,121,122,120,119,120,121,122,121,121,121,119
121,122,121,122,121,121,121,120,121,122,120,121,121,121,121,121,120,122,122,122,121,121,121,120,120,121,121,122,122,121,121,120,120,120,119,122,122,121,121,120,121,123,124,121,121,121,121,120,121,122,119,121,120,121,121,121,121,120,120,121,121,121,121,121,120,122,120,122,122,121,122,120,120,121,120,122,121,120,121,120,120,122,121,121,120,121,121,120,120,120,121,122,122,121,122,121,121,122,122,122,121,120,121,120,120,121,121,122,122,121,121,120,121,123,122,122,121,120,121,120,120,120,121,122,121,121,121,121
121,121,121,122,121,120,122,120,120,121,121,121,121,121,121,121,121,122,122,121,121,121,122,120,120,122,120,122,121,121,121,119,120,121,122,122,121,121,121,120,122,122,120,121,121,121,122,121,119,121,121,122,121,121,121,120,121,121,121,122,121,121,121,120,120,123,121,122,121,121,122,120,122,121,121,122,121,121,122,121,121,122,121,121,121,121,121,121,119,121,121,122,121,121,121,120,120,121,121,122,121,121,120,120,120,121,120,122,122,121,121,120,121,121,119,121,121,121,122,121,121,123,123,121,121,121,121,121
121,122,123,122,120,121,122,121,120,121,120,122,121,121,121,120,120,119,119,122,121,121,121,120,120,122,121,122,121,121,121,121,121,121,120,122,121,122,121,120,122,120,120,121,121,121,122,120,121,121,121,122,121,122,122,120,118,121,121,122,122,121,121,119,123,122,119,121,121,121,122,120,120,121,124,123,122,121,122,121,120,123,121,122,120,121,121,120,120,122,120,121,120,121,121,121,121,121,120,121,121,121,121,121,121,122,122,122,121,121,121,120,121,122,122,121,120,121,121,120,120,122,121,122,121,121,121,120
120,121,121,122,121,120,121,120,121,121,121,122,122,122,121,120,120,122,121,122,121,121,122,121,121,121,120,122,121,122,121,120,120,121,118,121,121,121,121,120,121,124,123,121,121,121,122,121,121,119,121,122,122,121,122,120,122,121,119,122,122,121,121,120,120,123,121,121,121,121,121,121,121,122,122,122,121,120,121,120,120,121,121,121,121,121,122,121,120,121,120,122,121,121,122,120,122,122,121,122,122,121,121,120,121,121,121,122,121,120,121,120,119,121,121,122,121,122,122,120,123,122,122,122,121,121,122,121
120,122,120,122,121,120,121,120,120,120,121,122,121,121,122,120,120,121,120,122,121,121,122,121,121,122,121,121,121,121,122,121,119,120,122,122,122,121,121,119,124,122,121,122,121,120,121,120,120,122,121,121,121,121,122,121,121,121,120,121,120,121,121,120,120,124,123,122,120,120,121,120,120,117,114,121,121,121,121,121,122,123,124,121,121,121,121,121,121,122,120,122,122,122,121,120,119,120,120,122,121,122,121,120,122,122,121,121,121,121,121,120,121,122,122,122,120,121,121,120,121,121,121,121,120,121,121,120
121,122,121,121,121,121,121,121,122,121,121,122,122,121,122,121,119,120,121,122,121,120,121,120,120,122,121,122,121,121,121,120,120,121,121,122,122,121,121,120,121,122,122,122,121,121,122,121,120,121,121,121,121,121,121,120,121,121,121,121,120,120,121,120,121,123,120,121,121,121,122,120,121,120,121,122,122,121,120,120,119,120,120,121,121,121,121,121,120,121,121,122,122,121,121,119,120,121,120,122,121,121,122,120,120,124,123,122,121,121,121,120,121,117,115,121,120,121,121,121,120,124,124,121,121,121,121,121
120,122,121,123,121,120,121,120,122,122,120,122,121,121,122,121,121,121,122,122,122,122,121,120,121,123,120,121,121,121,122,121,120,122,121,122,122,121,121,120,119,120,121,122,121,121,121,120,122,121,121,122,121,122,122,120,121,123,121,121,121,121,122,121,121,121,121,122,121,121,121,120,120,122,122,122,121,120,121,120,121,120,121,121,121,121,121,121,120,120,119,120,121,121,121,121,120,122,122,122,121,120,121,120,121,121,121,122,121,122,121,120,119,122,122,122,121,121,121,120,121,122,121,122,121,121,121,120
120,122,121,122,121,121,121,120,121,119,120,122,121,121,120,120,120,122,121,122,122,120,120,120,121,122,121,122,122,121,121,121,121,121,122,122,120,121,121,120,121,122,121,122,122,121,121,120,121,121,122,122,122,121,121,120,121,122,121,122,121,121,122,121,120,120,117,121,121,121,122,121,120,123,125,122,121,121,121,120,121,121,119,121,121,121,121,121,121,121,120,121,121,121,121,121,120,122,121,122,121,121,121,120,119,121,122,122,121,121,121,120,123,122,121,121,121,121,121,121,120,121,122,121,120,121,121,121
120,123,121,122,121,121,122,121,120,123,122,121,121,121,121,120,120,119,120,121,121,121,121,120,121,123,122,122,121,121,122,121,121,119,121,122,121,120,121,120,120,121,119,121,121,122,122,120,120,123,123,122,121,121,121,120,120,121,120,121,121,121,122,120,120,121,122,122,121,121,122,121,121,122,121,122,121,121,121,121,121,122,122,122,121,121,121,120,120,121,118,121,121,121,122,121,121,121,121,122,122,121,121,121,120,120,118,121,121,121,121,121,122,124,125,121,120,120,121,120,120,119,119,121,120,120,121,120
120,121,120,122,122,121,121,120,121,122,120,122,121,121,120,120,120,121,122,122,122,121,121,119,120,121,121,122,121,121,121,120,121,122,121,121,121,122,122,121,121,122,121,122,121,121,121,120,121,121,120,122,121,121,122,121,120,121,122,122,121,121,121,119,120,121,118,122,121,121,121,120,120,123,123,122,120,121,121,120,120,120,121,122,121,121,121,119,118,121,122,122,122,121,121,119,122,122,119,121,121,121,122,121,120,121,120,121,121,121,121,120,120,121,122,123,121,120,121,120,121,123,122,122,121,122,122,121
120,122,120,122,121,121,122,121,121,119,125,122,121,120,121,121,120,122,119,122,121,120,121,121,120,121,121,122,121,120,121,120,120,122,121,122,120,120,121,120,121,121,121,121,121,121,122,120,122,122,121,121,121,122,122,121,120,122,120,122,122,122,121,119,120,122,122,123,121,120,121,120,123,122,121,121,120,121,121,120,119,122,119,122,121,121,121,120,121,119,121,122,122,121,121,120,120,122,122,122,121,121,121,121,121,123,123,122,121,120,121,120,121,121,118,122,121,121,122,121,120,122,122,122,122,121,120,120
123,122,121,122,121,120,121,120,120,120,119,122,121,121,121,120,120,122,126,121,121,120,121,120,120,121,119,122,122,121,121,119,121,122,119,123,121,121,121,121,121,122,121,122,122,122,122,120,121,121,121,121,121,121,121,121,121,121,121,122,120,120,121,121,121,123,121,121,121,121,121,121,121,122,121,122,122,121,120,120,119,120,121,122,121,120,120,120,121,123,123,122,121,121,121,120,121,123,120,121,121,121,121,120,121,119,118,122,120,120,120,120,120,122,122,122,121,120,121,120,120,123,122,123,121,120,121,120
120,121,121,122,122,122,122,120,120,122,121,122,121,121,121,120,121,121,121,122,121,121,121,120,119,121,120,122,122,121,121,120,121,122,122,122,122,121,121,120,118,121,121,122,122,122,121,120,122,121,121,122,121,122,122,121,120,120,118,121,121,121,121,121,120,123,127,122,121,121,121,120,121,122,118,121,120,120,121,120,121,122,120,121,121,121,122,120,120,121,121,122,121,120,120,120,120,121,120,121,121,121,122,121,120,122,122,121,121,122,122,121,120,120,120,122,122,121,121,120,121,123,122,122,120,120,121,120
120,118,121,121,121,121,122,121,121,122,119,121,120,121,121,120,120,122,122,122,122,122,121,119,121,122,122,121,122,121,122,120,120,121,121,122,122,121,121,120,120,121,121,122,121,121,121,121,120,120,119,121,121,121,122,121,124,120,120,122,121,121,122,121,118,121,121,122,121,121,121,121,121,122,121,122,121,121,122,120,120,120,120,122,121,121,122,120,121,121,120,122,121,121,122,121,121,124,122,121,121,121,121,121,119,119,122,122,121,121,121,119,120,122,119,122,121,121,121,120,122,121,120,121,121,121,121,121
120,122,120,123,121,120,121,120,121,122,123,122,121,121,121,121,121,119,118,121,121,121,122,121,121,122,120,121,121,121,121,121,120,121,121,122,121,121,121,120,120,122,121,122,122,122,122,121,123,121,121,122,121,121,121,120,119,121,120,121,121,121,121,121,120,121,121,122,121,121,121,120,121,122,122,121,120,121,121,120,121,122,120,121,121,121,122,121,121,121,120,121,121,121,121,121,121,121,120,122,121,121,122,121,120,121,121,121,121,121,122,120,120,120,119,121,121,122,122,121,122,123,122,121,121,121,121,121
120,122,121,121,121,121,122,121,121,120,121,122,122,120,121,120,122,123,120,122,121,122,122,121,119,120,121,122,121,121,120,120,120,121,120,121,121,121,121,120,121,122,120,122,121,121,121,120,120,124,125,121,121,121,122,121,120,119,118,121,121,121,121,121,122,122,123,121,120,121,121,120,120,123,120,121,121,121,121,121,120,120,120,121,121,121,122,121,121,121,121,121,121,121,122,120,120,122,121,122,121,121,121,120,120,121,120,122,122,120,121,120,121,121,121,122,121,120,122,120,123,122,121,122,121,122,122,120
120,122,121,121,121,121,121,120,122,122,121,122,121,121,121,121,121,123,122,123,121,121,121,120,121,121,121,121,121,121,121,120,121,122,119,120,121,121,121,121,121,122,122,122,121,121,121,121,121,120,122,122,121,121,121,120,121,122,121,122,122,121,121,119,119,121,120,122,121,121,121,120,121,122,122,122,121,120,121,120,121,123,121,121,121,121,121,121,120,120,122,121,121,121,122,120,120,121,120,122,122,122,122,121,121,122,121,122,121,121,121,121,120,123,122,122,121,120,121,120,120,121,122,121,121,121,121,121
119,120,120,122,122,121,121,119,122,122,121,122,121,121,121,120,121,121,120,121,121,121,121,121,119,123,121,122,120,121,121,120,121,120,121,121,120,121,121,120,120,123,122,122,122,122,122,121,121,122,120,121,121,121,121,120,119,120,121,121,121,121,121,120,121,120,121,122,120,121,122,121,121,123,121,122,122,122,122,121,121,122,121,122,121,121,120,120,121,121,120,121,121,121,121,120,120,121,120,122,121,121,121,119,120,122,125,122,122,122,122,120,121,122,118,121,121,122,122,121,121,122,121,122,121,121,121,120
119,121,121,121,121,121,121,121,124,121,121,122,121,120,121,121,120,122,121,122,122,122,121,120,119,121,122,122,121,120,121,120,121,122,122,122,121,121,122,121,120,121,122,121,121,121,121,120,120,122,121,122,120,120,121,120,120,121,120,122,122,121,121,119,120,122,122,122,121,120,121,120,121,122,122,121,120,120,121,121,120,121,120,121,120,121,121,120,121,122,119,121,121,121,121,121,121,122,121,122,122,121,121,120,121,122,121,121,121,121,122,120,121,121,120,121,121,121,122,121,121,123,122,122,120,120,121,120
121,122,123,122,121,121,121,121,120,119,115,122,121,122,121,120,119,119,124,122,121,121,121,120,120,125,121,122,122,122,122,120,123,122,120,122,121,120,121,120,119,120,120,122,121,122,121,120,121,122,122,121,121,121,122,121,121,122,122,123,121,121,122,121,120,121,121,122,121,121,121,120,120,122,121,122,122,121,121,120,121,122,121,121,121,121,121,121,121,122,122,122,120,121,121,120,120,122,121,123,121,121,121,121,120,122,121,121,121,121,121,120,121,120,121,122,121,121,121,121,120,123,122,122,121,121,121,121
122,120,120,121,121,121,121,121,120,122,121,122,121,120,121,120,121,121,121,121,121,121,121,121,121,122,122,122,121,120,121,120,120,120,121,122,122,121,121,120,120,122,120,122,121,121,121,119,122,121,124,122,120,120,121,120,120,123,122,122,122,121,121,120,121,121,119,122,121,121,121,121,121,122,121,122,122,121,121,120,121,121,121,122,121,121,122,120,121,122,121,122,122,121,121,120,119,121,120,122,121,121,121,120,121,121,121,122,122,121,121,121,120,123,121,121,120,121,121,120,122,122,122,122,120,120,121,121
121,122,121,121,121,121,122,120,120,121,120,122,121,121,121,120,121,121,120,121,121,121,121,121,119,121,120,123,121,121,121,120,121,121,121,121,121,121,122,120,119,121,122,122,121,122,121,120,120,121,120,122,121,120,121,121,121,122,123,122,121,120,121,120,121,123,123,121,120,121,121,121,120,120,119,122,122,121,121,120,121,121,120,122,121,121,121,120,119,122,122,122,120,120,121,120,121,121,122,122,121,121,121,121,120,122,121,122,120,120,121,120,120,122,122,123,121,121,122,120,121,123,121,122,121,121,122,121
120,121,121,122,121,121,121,120,119,122,121,122,121,120,121,120,122,120,121,122,122,122,122,121,120,123,122,122,121,120,121,120,121,121,122,122,121,120,121,120,120,120,121,122,121,121,122,120,120,121,121,122,121,121,120,120,120,121,120,122,122,122,121,120,121,123,121,121,121,121,121,120,121,122,121,122,121,120,120,120,120,121,121,122,121,121,122,120,121,121,120,122,122,122,121,121,121,123,125,121,120,120,121,121,121,121,118,120,121,121,121,121,120,123,121,122,122,121,121,120,120,119,117,122,121,121,121,121
122,123,122,121,121,121,121,121,120,122,121,122,121,121,121,121,121,122,120,121,121,121,122,121,121,123,122,122,121,121,121,121,122,121,121,121,121,121,121,121,120,121,120,121,121,121,122,121,121,122,120,121,121,121,121,121,120,121,121,122,121,121,122,121,123,120,120,122,121,122,122,122,121,123,121,122,121,120,121,120,121,122,121,121,121,121,121,120,120,122,121,121,121,121,121,120,121,121,119,121,121,121,121,121,121,121,121,122,122,121,122,120,122,122,121,121,121,121,122,121,120,120,120,121,121,121,121,121
121,122,121,122,121,121,121,120,120,122,121,122,121,122,122,121,121,122,122,122,120,120,121,120,121,123,121,121,121,121,122,121,121,118,120,122,122,121,120,120,120,123,122,122,120,121,121,120,120,122,121,122,121,121,121,120,120,121,121,122,122,121,121,120,121,123,124,122,121,120,121,120,122,120,119,121,121,121,121,121,120,122,120,121,121,121,121,120,120,121,121,121,121,121,121,120,122,122,122,122,121,121,121,120,118,119,121,122,122,121,121,120,121,122,121,122,121,121,122,120,121,122,121,121,120,121,121,121
121,122,120,121,121,121,122,120,121,122,121,121,120,121,121,120,120,121,122,122,122,121,121,120,121,121,121,121,121,121,121,121,120,121,120,122,121,121,122,121,122,122,122,121,121,121,122,121,119,121,120,122,121,121,121,120,120,121,121,122,122,122,121,120,121,122,121,121,121,121,122,121,120,120,121,122,121,122,122,120,121,121,119,121,121,121,122,121,121,123,122,122,121,122,122,120,119,121,123,123,121,121,121,120,121,122,119,121,121,120,121,120,121,122,121,121,120,120,121,120,120,120,120,122,122,122,122,121
121,124,126,122,121,120,121,121,121,121,119,122,121,121,121,121,121,121,118,121,121,122,122,121,120,121,121,121,121,121,122,120,121,121,120,120,121,121,121,120,120,122,121,121,121,121,121,120,120,121,121,122,122,121,121,119,121,122,121,122,121,121,121,120,121,122,121,122,121,121,122,120,120,121,121,121,121,121,121,120,120,122,121,121,120,121,121,121,120,121,122,123,121,120,121,120,120,122,122,122,121,121,121,120,121,122,121,122,121,120,121,120,120,121,120,122,121,120,121,120,120,121,121,121,120,121,121,120
120,121,121,123,122,122,121,120,120,121,121,122,121,122,121,121,120,122,121,122,121,120,121,120,120,120,120,121,121,121,122,120,120,122,121,121,121,121,121,121,122,121,120,121,121,121,122,121,120,121,121,122,121,121,122,120,120,122,120,121,121,121,121,121,121,121,120,121,121,121,121,121,121,121,118,122,122,122,122,120,121,123,124,121,120,120,121,120,120,120,119,121,120,121,121,120,120,121,119,121,121,121,121,121,122,122,122,122,121,121,122,121,122,121,120,121,121,121,121,121,120,122,122,122,121,121,120,120
120,121,121,122,121,121,122,120,121,121,121,122,122,121,122,120,119,120,120,122,121,121,121,120,121,122,121,122,121,121,121,121,121,122,120,121,121,121,121,121,119,121,121,122,122,121,122,120,122,123,122,122,122,122,122,121,120,121,121,121,121,120,121,120,121,119,120,122,121,121,122,120,120,124,123,122,122,121,121,120,120,122,122,122,121,121,121,120,119,121,122,122,121,121,121,120,121,121,119,122,121,120,121,120,119,122,122,122,121,121,121,120,122,121,121,121,121,121,121,120,121,121,121,122,121,121,121,120
121,120,120,122,121,121,120,120,120,122,122,121,121,121,121,121,121,122,118,121,120,121,121,121,122,124,124,122,122,122,121,121,121,120,121,122,121,121,121,120,119,119,118,122,121,120,121,120,121,123,121,122,121,121,121,120,122,123,121,122,122,122,121,121,121,122,121,121,121,121,122,120,121,122,122,121,120,121,121,121,119,120,120,122,121,121,121,120,121,121,121,122,120,121,121,120,121,121,121,122,122,121,120,120,120,123,122,121,121,120,122,121,121,119,120,122,121,120,121,120,120,123,121,122,120,121,121,120
122,122,121,122,121,121,122,121,120,121,122,122,121,121,121,120,121,121,121,122,122,121,121,120,121,122,121,122,120,120,121,120,122,121,120,121,121,121,122,121,121,121,120,121,120,121,122,120,121,123,121,122,121,121,122,120,121,122,122,122,121,121,121,120,120,121,121,121,120,121,121,120,120,120,121,122,122,122,121,121,120,122,121,122,122,121,121,120,120,122,122,121,120,121,121,121,122,120,119,121,121,121,122,121,120,123,124,121,122,122,122,121,121,122,120,122,121,121,121,120,121,121,121,122,121,121,122,121
122,122,119,121,121,121,121,121,120,122,123,122,121,120,121,120,121,121,119,121,121,121,122,121,120,122,121,122,121,121,122,120,122,119,121,122,122,121,120,120,119,123,121,122,120,121,121,120,121,123,121,121,121,121,121,121,121,121,121,122,121,121,122,121,121,121,119,121,121,121,122,121,120,121,122,121,121,121,121,120,121,122,121,122,122,121,121,121,121,122,121,121,120,120,121,120,121,122,122,122,121,120,121,120,121,122,121,122,121,121,121,120,121,122,122,122,121,121,121,121,121,122,120,122,121,121,121,121
120,121,121,122,122,121,121,120,121,122,122,122,122,121,121,120,121,119,117,122,122,120,121,120,120,124,125,121,121,121,121,121,121,122,120,122,121,121,121,120,120,122,121,122,120,120,121,121,120,121,121,122,122,121,121,120,121,121,121,122,122,121,121,120,121,123,121,122,120,120,121,120,120,121,122,122,120,121,121,120,121,123,120,122,121,121,122,120,120,119,120,121,121,121,122,120,120,122,122,122,121,120,121,120,121,122,121,122,120,121,122,121,119,122,121,122,122,121,121,120,123,120,121,122,121,122,122,121
119,122,121,122,121,122,121,120,120,121,120,122,121,121,122,120,121,121,120,121,121,121,121,121,120,122,122,122,121,120,121,120,123,121,121,122,121,121,121,121,120,123,123,121,120,121,121,121,121,119,118,122,122,120,121,121,122,123,125,122,121,121,122,120,121,122,119,121,121,121,121,121,120,119,120,121,120,121,121,121,122,123,121,121,121,121,122,121,120,119,120,121,121,121,122,120,121,123,121,121,121,121,121,121,120,121,120,121,121,121,121,120,121,122,121,122,122,122,121,120,118,121,121,122,122,121,121,120
121,121,121,122,121,121,121,120,121,121,121,122,121,122,122,121,121,122,121,121,120,121,121,120,120,120,120,121,121,121,122,121,120,121,121,122,122,121,121,120,121,122,121,121,119,121,122,121,120,120,121,121,121,121,121,121,121,122,121,121,121,121,122,121,121,123,120,121,121,121,122,120,122,122,122,121,121,121,121,122,121,122,121,121,120,121,121,120,120,122,120,121,120,121,122,120,121,122,121,122,122,121,121,120,121,124,121,121,121,121,121,121,120,119,117,122,121,121,122,121,122,123,123,122,122,121,121,120
119,121,120,122,121,121,121,119,121,120,120,122,121,122,122,120,121,123,121,122,122,122,121,120,120,123,122,122,122,121,121,120,120,120,121,122,122,121,121,120,119,120,121,122,122,121,121,120,120,122,122,122,121,120,121,120,121,121,120,121,121,121,122,120,121,122,121,122,121,121,121,120,121,122,121,121,121,121,122,121,119,120,121,122,121,120,121,120,121,122,121,122,121,121,122,121,119,120,121,122,122,121,121,119,121,122,122,122,121,121,121,120,119,122,121,121,121,121,122,120,123,120,121,122,121,121,122,121
120,121,120,122,121,121,121,121,120,122,122,122,121,121,121,120,120,121,120,122,121,122,122,120,120,123,122,122,121,122,121,120,120,118,119,121,122,121,121,120,121,121,120,121,121,121,121,121,120,122,121,122,121,121,122,120,121,122,121,121,120,121,121,121,120,122,122,122,121,121,122,120,121,122,117,122,121,121,121,121,120,123,124,121,121,121,121,121,122,122,121,122,121,122,121,120,120,122,120,122,121,122,122,120,121,121,121,122,121,121,121,121,119,120,121,122,121,121,121,120,120,121,121,122,122,120,120,120
120,122,120,122,122,121,122,120,121,121,121,121,121,121,121,120,122,123,121,121,121,121,122,121,120,120,122,123,121,121,120,120,120,122,120,122,121,121,122,121,120,121,121,122,122,122,121,120,121,121,121,121,121,121,121,121,120,122,120,122,122,121,121,120,120,121,121,122,121,121,122,120,120,121,120,121,121,121,122,121,120,123,121,122,122,121,121,119,121,119,122,121,121,121,121,121,120,122,120,121,120,120,122,121,122,122,122,121,120,121,121,121,120,121,120,121,122,121,121,120,119,121,121,122,122,121,121,120
121,122,122,122,120,121,121,120,122,122,120,122,121,121,122,120,121,121,120,122,122,121,122,121,121,122,125,121,121,121,121,121,121,121,119,121,122,121,121,120,121,121,120,122,120,121,121,121,120,120,120,121,121,121,121,120,120,123,121,121,121,121,121,121,120,122,122,123,121,120,121,120,121,121,122,122,121,121,120,120,119,120,121,122,121,122,121,120,120,123,120,121,121,121,121,121,120,122,121,122,122,121,120,119,120,121,122,122,122,121,121,119,120,122,121,122,121,121,121,120,120,122,121,122,122,122,121,121
122,122,122,122,120,121,121,120,120,122,122,122,120,121,122,120,120,122,122,121,120,121,121,120,121,120,122,122,121,121,122,121,120,123,122,122,120,121,121,120,120,122,121,121,121,121,121,121,120,119,119,121,121,121,122,121,121,122,121,122,122,121,121,120,121,121,122,122,121,121,121,120,120,123,125,122,121,120,121,120,120,121,119,122,122,121,121,120,121,122,120,121,121,121,121,121,120,121,120,121,121,121,122,121,121,121,120,122,121,121,121,120,120,122,122,121,120,121,122,120,121,122,121,122,121,121,121,120
121,122,121,122,121,122,122,121,119,121,121,122,121,121,121,120,121,122,122,122,120,120,121,120,120,122,121,122,121,121,121,121,120,121,121,122,122,121,121,120,120,122,122,122,121,121,121,120,122,121,121,122,121,121,121,121,120,122,121,122,121,121,121,120,121,121,121,122,121,120,121,120,121,122,122,122,121,121,121,121,121,123,122,122,122,121,121,119,122,121,121,122,123,121,121,120,120,122,121,121,121,122,121,120,121,118,121,122,122,122,122,120,120,122,122,122,122,121,121,120,121,122,120,121,121,121,121,121
121,121,122,122,121,121,121,120,120,122,122,122,122,121,120,120,122,121,121,122,121,121,121,121,119,121,121,122,121,121,122,120,119,120,122,122,122,121,120,120,121,121,120,121,121,121,122,121,121,121,119,121,121,121,122,121,121,123,125,121,121,121,121,120,121,121,119,121,121,121,121,121,120,121,120,122,121,120,120,120,121,122,122,122,122,121,121,121,121,122,121,121,121,121,122,121,120,122,122,122,120,121,121,120,119,120,119,121,121,121,121,120,123,123,121,122,121,121,121,121,121,121,121,121,120,120,121,120
120,121,121,122,121,122,122,120,120,121,119,121,121,121,122,121,121,122,122,122,120,120,121,121,120,121,121,122,121,121,121,120,122,121,121,121,121,121,121,120,121,120,121,121,120,121,121,120,121,121,120,121,120,121,121,120,121,122,121,122,121,122,122,121,120,122,122,122,120,121,121,120,121,122,121,122,121,121,121,120,120,122,121,121,121,121,122,120,120,121,120,122,121,121,122,121,122,122,121,122,121,121,122,120,120,122,120,121,121,121,121,120,119,120,121,122,121,122,121,120,121,122,121,122,120,120,121,120
120,120,119,122,122,121,122,120,122,123,126,122,122,122,121,120,122,119,117,121,121,120,121,121,120,121,119,121,120,121,122,121,120,122,121,121,122,121,121,119,121,123,122,121,121,121,121,121,120,121,122,122,121,120,121,120,121,122,121,121,120,120,121,120,122,118,120,122,121,121,122,122,117,122,120,121,121,121,121,117,118,123,122,122,121,121,122,121,122,122,122,121,121,121,121,120,120,121,120,122,121,122,121,120,122,122,121,122,122,121,121,119,121,122,122,121,120,120,121,121,123,120,120,122,121,122,122,122
114,123,122,121,121,120,120,111,122,123,121,122,121,120,123,127,120,122,120,122,122,121,122,119,120,120,121,122,121,121,122,120,118,123,122,122,120,120,121,120,123,120,120,121,121,122,121,122,121,123,121,122,121,121,121,119,117,122,121,122,121,120,120,119,117,121,122,123,122,121,120,118,127,119,119,121,121,121,122,121,118,123,121,122,121,121,121,120,117,122,121,121,121,121,122,120,120,122,122,121,120,121,120,121,133,122,121,122,121,123,119,119,106,121,121,122,120,119,125,122,122,123,121,123,122,120,123,118
117,120,121,121,120,121,122,121,121,124,122,122,121,120,119,120,119,119,122,122,121,120,121,120,121,122,120,123,122,122,121,121,125,120,119,120,121,120,119,119,124,125,122,122,121,121,121,118,114,122,124,120,120,119,122,119,122,122,121,124,123,123,130,126,118,121,121,122,122,121,124,119,122,116,119,121,120,117,117,119,128,122,120,121,120,122,121,117,87,123,120,120,120,118,116,116,146,124,122,123,121,120,125,127,122,120,121,122,121,119,123,121,118,120,120,122,121,123,121,118,128,118,119,121,121,120,117,120
113,121,120,121,121,120,120,123,94,124,122,122,121,122,123,111,140,120,120,121,120,119,120,125,123,123,122,123,123,120,123,122,117,121,121,122,120,117,118,121,112,120,121,121,122,117,108,115,119,121,122,123,122,115,136,122,126,123,122,120,119,117,115,121,115,120,117,121,119,121,123,118,126,125,126,121,123,119,110,120,122,118,118,118,117,117,126,120,119,122,121,126,133,132,113,123,121,123,121,120,117,113,108,118,116,120,120,120,120,133,127,117,131,123,120,120,118,117,116,126,93,122,121,120,119,120,111,117
115,122,123,123,118,108,137,120,132,120,120,124,132,125,123,128,117,121,121,119,112,96,111,113,134,119,119,117,112,122,90,124,97,122,118,121,125,133,154,129,120,124,124,128,123,138,111,117,133,123,124,127,128,98,125,130,117,114,117,118,114,114,110,112,119,120,121,120,119,117,73,119,125,125,122,125,132,122,198,125,123,120,120,120,113,113,68,131,120,121,120,121,125,134,157,119,123,121,122,121,121,134,116,112,121,122,121,118,119,110,105,120,114,115,121,123,122,122,104,114,130,125,122,120,119,125,113,117
130,125,124,123,123,130,120,131,120,125,122,122,126,114,141,122,120,123,122,123,120,114,119,118,120,121,121,122,125,126,132,117,121,120,121,119,115,120,114,119,116,130,122,127,125,114,101,108,125,113,122,123,137,132,166,139,123,121,121,120,119,122,143,123,118,123,122,121,120,117,109,116,123,121,119,118,117,123,93,121,118,124,124,123,120,129,184,126,124,123,121,122,121,108,108,121,114,116,116,122,112,99,107,99,116,126,125,134,148,158,188,116,125,121,116,111,92,98,102,114,126,111,118,125,146,114,80,127
119,126,125,127,120,133,154,127,123,125,122,126,131,122,148,122,116,126,122,119,113,123,112,116,127,137,118,107,88,99,100,109,137,100,118,120,142,125,125,128,126,127,127,143,147,143,181,125,110,128,120,114,108,97,91,113,124,123,120,123,115,114,110,125,131,123,121,117,121,111,114,127,115,122,119,118,121,130,141,119,120,119,117,114,101,119,134,112,126,129,131,133,125,126,100,124,124,123,120,124,117,124,103,119,122,125,123,118,124,127,95,124,113,120,119,123,124,123,169,121,130,126,126,125,112,105,116,118
116,116,118,122,122,129,71,139,120,125,123,117,112,104,65,121,115,114,116,115,112,111,113,118,122,121,123,134,132,128,118,106,125,130,121,118,113,112,117,101,121,113,122,121,117,116,120,127,137,111,117,119,119,114,74,126,118,133,128,124,117,118,99,119,123,127,122,121,129,124,148,122,121,125,123,126,122,125,133,125,119,118,118,129,123,97,53,124,121,118,119,126,105,121,87,104,117,117,121,126,139,110,86,115,132,138,122,117,112,157,239,149,134,110,122,127,146,191,128,147,140,134,119,114,114,118,101,111
115,107,116,111,94,81,65,135,108,116,124,140,160,165,207,155,108,133,124,122,120,115,88,113,122,128,120,123,126,121,99,103,118,123,123,124,107,92,115,123,137,110,113,118,116,117,172,127,117,126,125,142,136,136,110,136,123,128,124,118,107,123,154,129,123,124,127,132,140,143,182,149,120,127,119,115,110,118,120,159,110,103,116,109,115,111,105,182,119,123,121,129,132,147,154,187,118,118,117,118,114,99,157,0,121,134,124,126,133,121,56,0,100,103,117,135,125,134,107,0,119,102,115,115,106,110,78,0
137,127,109,106,102,104,206,0,130,136,133,114,130,124,115,0,127,119,121,121,122,129,116,0,111,127,126,123,134,127,130,0,127,118,115,114,110,120,138,9,115,128,125,122,126,123,126,35,151,116,115,106,107,122,133,57,127,126,119,120,136,124,212,79,126,121,119,111,95,137,194,80,118,124,130,129,133,138,55,80,136,128,119,118,110,111,145,87,108,116,120,123,130,118,108,102,190,117,121,111,106,126,89,109,117,133,128,136,133,131,218,112,114,130,122,129,139,114,106,116,108,119,123,138,123,112,116,118
138,115,120,121,117,120,119,118,113,125,115,115,108,103,124,119,137,119,123,122,112,118,73,118,120,124,119,128,142,133,93,119,120,124,121,119,129,140,94,119,133,131,125,127,124,115,95,120,108,119,125,124,123,120,125,119,112,121,124,135,130,115,113,120,122,121,116,115,115,117,86,120,119,127,123,118,108,109,102,120,151,130,128,147,154,140,102,120,58,105,113,105,109,119,88,121,157,125,132,142,135,114,109,120,90,120,123,145,125,134,175,119,114,101,113,118,119,109,137,119,133,132,125,121,121,133,141,120
118,130,123,117,109,99,36,124,123,121,124,131,131,151,162,119,115,121,119,121,120,115,117,120,132,119,115,110,116,140,37,122,121,126,131,136,118,68,68,121,123,122,116,117,109,102,65,121,130,123,122,117,122,138,171,119,114,121,114,123,134,109,58,121,100,126,125,125,115,127,105,121,128,117,121,132,131,123,99,120,114,127,119,110,105,105,78,121,121,119,117,113,110,108,117,120,114,130,121,122,115,118,118,120,122,127,120,120,113,132,170,119,104,114,119,133,137,121,119,119,105,131,124,119,119,123,161,119
130,122,126,140,141,127,100,120,122,133,118,122,119,149,120,121,77,112,125,140,129,152,173,119,165,116,120,120,123,112,111,120,134,117,115,105,104,122,147,119,125,132,132,128,121,96,126,119,104,124,121,128,129,109,139,119,140,117,124,147,124,118,107,120,130,135,117,111,107,114,72,121,63,100,115,119,136,100,105,120,167,125,119,117,117,139,149,120,110,128,125,123,121,119,126,120,108,125,125,127,124,134,55,121,129,128,119,119,114,108,134,120,126,123,120,121,121,128,118,120,101,126,127,135,132,118,117,120
128,120,122,127,132,130,134,120,125,129,131,140,120,133,128,120,115,118,123,125,121,103,52,121,114,122,119,122,119,121,111,120,117,119,114,116,115,132,113,120,126,125,121,128,110,102,20,121,141,116,122,134,132,117,139,119,117,121,120,125,138,124,115,120,114,122,111,105,97,105,131,120,130,120,122,124,132,127,95,120,114,127,120,116,110,108,72,121,118,135,121,123,125,111,140,120,152,122,116,118,121,116,122,120,98,131,127,117,112,110,110,120,119,126,120,119,115,122,134,120,128,123,119,114,115,109,84,121
113,124,114,115,116,128,96,121,126,129,128,160,174,136,133,119,110,99,122,115,103,97,165,119,120,129,119,116,117,129,148,119,118,122,119,119,109,113,140,120,124,122,113,106,93,121,143,120,132,123,129,141,159,125,162,119,112,124,120,115,104,126,148,120,164,121,126,128,133,97,141,120,111,121,121,126,122,141,128,120,121,126,122,129,123,119,118,120,133,119,123,122,120,117,119,120,134,121,120,124,132,125,131,121,132,103,122,129,133,120,152,120,119,138,126,125,123,142,82,121,133,129,119,115,103,127,119,120
119,119,120,121,112,88,101,120,120,119,116,124,122,127,111,121,118,125,124,123,117,121,111,120,124,124,119,120,124,120,116,120,119,120,122,130,132,142,155,120,121,121,122,125,115,116,109,121,115,119,118,112,115,111,110,120,129,123,120,136,134,124,105,121,99,128,121,113,119,133,138,120,123,115,119,119,122,120,131,120,142,128,128,129,121,131,131,121,88,126,120,119,120,122,140,120,129,110,116,119,119,127,124,120,127,126,122,125,123,113,133,120,103,135,123,118,105,108,88,121,174,108,122,126,141,151,186,118
101,119,116,115,112,113,30,122,116,127,119,123,124,125,122,120,119,116,122,118,122,120,150,119,113,122,120,121,119,122,169,120,129,121,122,123,120,119,117,120,125,126,120,120,115,124,121,120,131,125,124,126,128,101,97,121,115,123,120,121,127,119,108,121,124,123,123,130,124,121,142,120,108,117,118,118,116,110,47,121,132,133,121,118,118,123,229,118,111,111,118,122,118,129,101,120,105,132,122,122,126,124,106,120,117,98,118,124,125,120,119,120,122,120,119,112,105,113,110,120,128,131,123,131,113,118,117,120
125,104,118,126,136,130,135,120,148,129,119,108,113,103,107,121,119,118,124,124,124,132,151,119,135,125,121,116,122,110,60,121,124,122,123,128,128,139,173,119,118,121,119,122,123,108,119,120,121,121,115,108,104,106,93,121,109,128,126,126,134,118,105,120,135,111,125,130,128,130,119,120,129,129,123,119,118,130,116,121,110,130,118,116,121,96,101,121,88,126,125,110,121,124,88,121,122,111,117,128,120,130,210,118,99,136,124,119,116,116,105,120,144,107,116,119,124,121,113,120,98,123,124,127,120,106,85,121
136,118,119,125,124,128,145,120,114,125,127,125,121,121,153,119,133,122,117,116,113,122,112,121,119,122,118,107,91,113,140,120,120,120,118,132,142,134,107,120,123,123,120,112,124,125,158,119,126,124,123,120,115,119,99,121,126,125,119,106,97,100,112,121,129,124,121,127,133,128,163,120,110,125,122,119,112,116,127,120,143,112,120,121,121,122,107,121,131,123,121,113,122,121,123,120,156,109,115,117,113,123,128,120,112,126,121,130,128,127,169,120,115,133,124,121,122,125,110,120,110,133,123,118,119,113,159,119
131,118,121,122,121,147,140,120,120,120,121,119,118,105,114,120,125,123,122,122,122,146,241,118,113,120,125,125,121,126,90,121,117,121,121,123,124,120,112,120,117,122,121,128,123,113,110,121,117,122,121,118,116,111,113,121,134,112,114,121,126,120,147,120,119,126,125,132,131,135,163,120,119,126,121,119,110,108,104,120,106,130,121,116,116,126,127,120,129,127,123,119,122,119,122,120,137,104,116,124,128,114,149,119,94,107,119,123,119,113,92,121,127,131,120,111,105,103,97,121,139,133,118,111,113,122,97,121
127,95,112,124,120,101,141,120,102,129,123,122,119,120,121,120,112,129,121,120,121,119,82,121,122,124,119,119,120,112,81,121,112,118,123,126,122,143,125,120,123,118,119,127,124,121,135,120,122,120,117,120,120,123,118,120,117,129,124,123,118,112,81,121,127,114,121,141,134,121,85,121,134,108,115,114,112,116,114,121,127,123,118,117,126,108,118,120,122,129,125,108,94,113,107,121,106,121,125,138,144,144,169,119,159,133,121,113,113,120,131,120,159,81,113,112,110,107,81,121,90,116,120,134,135,116,118,120
127,130,118,115,111,135,241,118,129,123,124,120,129,133,120,121,113,127,119,112,105,109,89,121,130,119,119,122,122,116,136,120,117,121,120,116,127,115,113,121,112,128,125,135,129,131,128,121,145,118,115,115,111,125,125,121,112,124,121,100,107,103,52,122,119,128,126,131,129,128,242,118,100,114,120,123,130,138,121,121,136,121,118,120,123,114,89,121,113,122,119,118,111,99,136,120,124,117,120,116,120,118,94,121,104,133,124,124,127,141,118,120,133,101,117,119,120,118,112,120,90,127,121,121,125,130,115,120
127,130,123,120,122,121,91,120,95,115,122,127,126,134,171,119,119,115,119,122,125,124,75,121,118,121,118,111,104,106,107,120,124,118,121,123,117,114,23,122,121,131,131,119,144,129,66,122,127,125,129,134,140,137,117,120,120,122,123,128,129,119,113,120,124,118,116,113,114,109,123,120,134,140,129,125,114,93,47,122,94,73,125,133,139,141,195,119,117,120,118,111,109,117,97,121,106,129,117,116,119,112,121,120,126,137,127,124,123,122,120,120,52,92,116,122,126,128,122,120,133,137,121,120,120,121,118,120
114,111,121,123,121,123,128,120,115,126,121,123,127,119,117,121,116,121,118,117,111,107,111,120,107,118,125,131,132,111,130,120,134,118,119,125,124,117,93,121,117,119,117,111,115,126,197,119,120,121,118,117,118,117,104,121,126,126,122,113,109,115,121,120,141,114,119,123,139,119,50,121,131,122,120,126,125,135,89,121,118,124,123,120,116,110,119,119,146,132,123,126,127,145,211,119,93,127,119,113,111,111,100,121,154,130,127,130,127,103,100,120,108,123,120,123,124,132,175,119,143,117,121,118,115,114,112,121
129,141,125,125,128,130,239,117,133,86,111,123,134,141,127,120,119,130,124,124,116,118,122,120,122,121,120,116,113,115,83,121,112,122,120,123,124,128,203,118,133,120,121,124,119,100,29,121,111,120,122,113,122,121,122,120,124,118,113,106,101,89,73,121,106,120,121,126,125,131,202,119,127,130,123,128,134,111,13,123,109,127,119,116,116,120,195,119,120,119,117,113,113,129,124,121,132,122,125,130,132,112,59,121,118,125,118,123,122,112,142,119,93,117,116,113,114,116,98,121,130,123,122,123,128,106,124,120
130,128,123,120,111,112,172,118,76,115,127,142,138,155,159,120,122,119,114,110,96,87,119,120,112,134,125,113,141,125,145,120,129,101,115,123,115,129,68,121,96,125,116,114,115,136,220,118,119,116,118,117,110,91,47,121,120,122,117,116,114,123,125,120,122,123,123,127,127,118,66,121,111,119,119,113,107,122,135,120,135,139,124,125,118,125,118,120,83,97,116,125,131,116,130,119,114,121,118,109,106,114,116,120,127,130,125,126,120,124,104,121,104,123,118,115,119,116,134,120,111,114,119,124,127,112,93,121
116,122,117,115,113,117,87,121,117,124,128,133,133,124,110,120,124,123,121,128,118,132,100,121,113,113,122,127,127,114,112,120,117,125,121,115,117,121,113,121,117,128,125,129,136,146,109,120,138,117,120,120,124,135,69,122,119,125,125,131,124,121,130,120,106,123,119,112,106,113,78,121,131,122,118,119,118,107,110,120,93,119,119,121,123,122,79,121,139,129,123,125,119,116,85,120,113,102,115,116,115,123,125,120,152,132,121,124,118,114,110,120,87,126,125,126,128,109,105,121,133,109,115,115,114,114,137,119
145,128,125,123,124,124,95,121,96,135,124,126,124,133,134,120,106,103,114,104,104,89,119,120,127,126,122,134,135,143,162,119,110,123,121,116,105,107,74,121,123,123,118,123,144,153,158,119,117,122,124,114,105,89,98,121,129,122,121,120,125,149,144,120,110,121,122,129,121,117,142,119,129,127,121,117,114,108,118,128,128,111,117,124,127,117,119,121,103,129,120,122,117,119,181,110,98,105,122,132,129,141,201,113,148,146,122,121,122,102,108,122,83,95,113,119,120,107,98,123,109,136,124,128,119,111,97,122
162,124,122,121,121,130,145,105,118,119,119,122,117,123,115,126,105,131,121,117,114,106,109,137,97,128,134,130,129,73,8,100,134,115,124,130,127,144,240,106,118,120,112,105,115,119,80,124,121,120,125,130,121,129,146,120,127,123,123,124,134,101,20,113,126,112,118,143,129,121,167,116,105,140,126,117,122,130,155,132,107,98,116,128,129,117,127,129,89,118,129,130,132,144,153,116,143,120,116,116,114,123,107,115,100,140,124,122,117,112,108,125,135,95,114,119,118,117,105,118,106,118,120,120,121,132,140,119
119,132,124,124,120,117,135,119,114,120,119,125,125,93,57,122,118,131,121,106,99,117,156,117,104,118,122,125,139,125,168,117,119,122,118,108,93,125,77,121,119,116,118,134,131,104,85,130,121,121,120,125,132,136,160,119,121,123,122,123,116,142,146,117,114,120,119,115,120,122,109,120,116,112,119,121,130,82,78,135,131,134,125,125,127,131,159,116,99,130,124,124,126,114,91,119,154,114,120,123,125,121,109,119,58,122,121,122,117,112,106,120,140,122,119,122,121,124,121,121,120,117,118,121,121,110,81,119
88,120,119,114,115,116,108,120,136,122,119,123,117,114,87,120,82,111,122,129,136,155,226,115,124,126,122,123,119,126,152,116,129,119,116,120,117,118,99,119,121,124,123,118,128,117,164,117,115,119,120,122,113,123,107,120,121,125,121,111,122,123,134,119,119,115,119,123,109,116,130,120,112,121,119,118,126,120,49,121,112,124,121,121,113,128,236,118,128,122,116,107,100,121,98,121,108,138,123,128,135,91,56,122,75,62,110,106,104,122,55,122,120,135,124,123,118,115,92,121,135,126,120,118,120,123,132,120
106,129,113,107,100,112,116,120,123,120,125,129,128,120,112,120,128,125,118,115,109,123,132,120,117,108,123,133,133,136,101,121,109,117,112,109,98,107,119,121,124,123,124,111,129,119,142,120,115,122,118,110,103,105,71,122,119,127,122,128,136,168,202,118,117,121,118,113,107,106,95,121,134,110,121,128,133,127,132,138,116,125,124,132,127,119,82,115,131,132,123,124,121,115,108,118,91,114,118,119,122,124,89,120,129,111,122,125,125,118,120,118,158,126,120,124,124,119,125,118,111,123,121,117,120,128,122,125
99,118,122,129,126,134,120,119,116,125,123,121,116,112,94,119,117,119,120,120,133,125,160,117,123,120,124,127,128,127,138,119,133,122,120,122,125,118,107,120,116,122,120,117,116,112,121,120,122,122,121,123,123,124,79,121,125,126,127,126,121,118,187,119,104,123,121,127,121,119,64,122,133,124,123,121,121,128,146,120,113,120,120,119,118,116,115,120,140,122,120,127,140,120,111,121,151,131,124,122,115,117,110,121,90,104,118,120,122,119,121,121,135,123,119,119,119,136,138,119,81,130,121,116,114,114,120,121
157,122,122,126,125,109,30,122,115,122,122,121,118,123,171,119,113,127,113,107,111,114,95,123,123,125,125,126,128,118,143,119,118,122,125,135,124,96,95,120,120,120,121,127,116,119,106,120,120,121,120,118,115,117,103,121,123,123,122,121,116,113,143,120,119,122,124,133,133,137,153,120,114,122,121,119,113,117,109,120,147,124,121,128,130,126,150,119,122,127,119,114,110,107,109,120,117,122,126,127,121,126,164,119,104,131,121,119,118,128,120,121,112,117,117,120,117,115,111,120,119,123,121,121,121,116,99,120
140,131,121,119,116,128,126,120,97,125,123,124,125,91,22,122,126,119,119,122,118,121,136,119,133,121,120,118,124,118,102,121,116,118,123,124,117,123,121,120,125,124,121,115,121,126,137,120,118,120,119,122,121,121,121,120,129,125,122,123,115,115,124,121,95,112,120,119,117,122,99,121,128,124,119,120,121,121,120,120,127,121,118,113,110,115,99,121,109,139,123,124,119,114,85,121,136,100,116,119,122,127,68,122,132,126,121,122,122,117,113,120,99,123,117,117,121,115,111,120,127,128,125,125,123,121,112,121
62,110,119,118,118,122,107,120,157,108,118,119,115,97,92,121,116,136,124,131,135,132,130,119,115,124,124,123,120,123,57,122,119,119,114,104,109,102,165,119,110,115,118,120,125,115,111,120,123,120,123,135,132,133,61,121,123,123,120,113,111,111,159,119,125,124,120,122,127,144,107,120,120,124,125,117,121,116,100,121,137,121,121,126,123,120,110,120,118,123,121,123,112,115,121,120,121,105,116,125,117,121,93,121,60,124,121,125,126,122,116,121,168,113,116,122,117,119,117,120,99,115,121,120,121,124,140,120
96,123,120,120,120,122,93,121,129,133,122,122,119,114,95,121,123,127,121,114,113,111,154,119,125,124,120,126,108,106,63,121,114,122,123,119,118,106,93,121,117,119,115,112,110,132,117,120,120,122,121,120,118,124,114,121,122,123,125,123,127,123,109,121,116,117,116,115,110,96,102,120,131,129,126,126,124,137,154,120,105,103,115,112,119,107,140,120,117,125,123,117,111,120,144,120,135,125,122,129,130,132,134,120,121,103,118,124,116,111,119,120,113,139,130,125,121,118,107,120,162,125,123,124,126,142,224,118
134,125,120,119,117,120,101,121,107,110,116,120,122,111,116,119,118,123,119,118,111,112,109,121,138,130,130,129,133,145,176,119,111,111,117,117,114,115,108,121,123,122,119,124,124,117,86,121,120,120,122,122,124,126,97,122,118,119,117,120,118,117,121,120,128,125,123,117,132,111,81,121,125,123,126,122,112,141,182,119,113,137,124,122,130,135,132,121,127,113,123,133,130,123,89,121,110,109,120,127,132,112,120,120,123,138,127,120,118,138,118,120,89,135,120,118,118,112,84,120,182,81,111,115,115,129,220,118
83,125,123,128,131,137,160,119,105,127,122,128,121,124,116,120,120,131,123,111,91,75,122,120,125,137,129,122,149,154,162,120,159,116,120,119,114,118,115,120,113,120,113,107,111,114,108,120,120,123,118,116,119,125,117,121,118,121,128,131,128,118,134,120,116,122,117,116,107,118,90,120,122,118,120,129,123,133,145,120,116,118,116,98,116,119,123,120,133,131,127,130,122,120,107,121,114,115,120,123,121,117,128,121,152,118,118,123,123,114,122,120,107,115,117,114,107,117,187,119,128,125,120,121,137,140,119,120
105,118,119,119,119,119,110,121,105,139,128,121,121,124,100,121,127,105,120,123,121,124,145,120,115,124,120,116,117,130,174,119,118,125,118,117,115,118,118,121,126,125,124,129,133,121,92,121,97,121,120,129,119,92,159,119,134,115,116,118,120,124,132,120,119,123,123,125,130,131,102,120,127,121,118,117,138,114,109,120,122,125,124,134,114,112,99,120,122,110,118,118,118,126,91,121,121,118,125,123,118,129,149,120,125,127,122,119,118,110,110,120,153,117,119,119,120,118,123,120,138,125,122,132,141,136,94,121
114,126,122,122,118,136,188,118,130,129,122,119,115,114,83,121,118,128,120,117,141,114,146,119,126,128,128,138,127,99,99,121,124,125,119,119,113,118,136,120,121,122,118,120,131,130,99,121,125,129,132,131,149,130,161,120,117,118,117,132,100,64,28,123,115,118,118,114,116,115,110,121,125,125,119,118,116,119,88,121,127,131,123,124,131,128,75,121,135,124,125,137,135,110,79,121,110,98,114,115,115,108,104,121,111,122,119,117,116,119,110,121,134,133,119,110,102,119,126,119,161,122,121,132,144,143,148,120
114,113,118,119,114,109,109,121,120,131,123,123,121,128,172,119,122,128,123,124,115,124,88,120,143,122,124,120,144,101,155,119,115,130,122,115,113,141,150,120,120,121,116,123,130,110,140,120,125,121,124,116,118,160,167,120,116,116,117,118,131,123,88,121,120,120,116,104,101,94,96,120,119,118,127,140,142,134,29,122,115,118,113,114,102,106,86,121,129,123,121,114,118,99,96,121,151,136,129,128,130,151,143,120,101,112,116,118,125,126,111,121,130,125,119,122,122,118,110,120,112,121,122,123,114,121,120,120
140,141,126,122,121,105,105,120,148,102,116,120,123,126,131,120,141,125,121,122,119,123,92,121,129,123,124,127,139,120,104,120,114,124,123,133,110,105,205,118,119,120,119,115,110,105,85,121,118,119,114,116,117,132,167,119,128,125,120,110,126,134,103,121,114,116,120,123,114,121,141,120,121,121,122,121,130,133,120,120,117,120,118,115,116,117,91,121,126,126,127,124,125,151,182,119,117,121,119,122,121,111,105,121,119,131,119,119,118,122,114,120,102,91,115,115,126,147,172,119,137,133,127,116,125,109,38,122
142,133,121,120,118,120,66,121,159,107,117,118,118,119,98,121,67,111,120,120,116,105,78,121,121,132,124,128,133,122,170,119,127,130,124,128,119,116,131,121,107,111,117,121,122,131,150,119,132,122,117,105,91,94,72,121,135,123,122,126,130,138,154,120,119,126,124,123,121,119,109,121,110,123,116,120,120,101,120,121,134,116,121,122,136,142,242,118,107,130,119,110,112,104,105,121,151,105,121,119,112,146,145,119,115,132,121,117,127,131,167,119,120,119,121,119,120,151,88,121,140,121,126,134,128,115,151,119
111,116,118,114,110,108,62,121,123,127,122,121,125,135,114,120,142,117,121,125,130,123,106,121,124,129,129,130,129,119,110,120,113,119,117,116,120,111,113,121,118,125,128,134,127,146,128,121,119,132,124,121,122,118,146,119,108,106,114,107,106,114,72,121,123,127,128,139,130,134,130,119,124,122,118,113,115,120,97,120,117,120,116,116,113,98,79,121,102,131,130,125,129,119,88,120,132,110,115,123,129,126,169,119,123,122,121,120,119,122,117,120,122,132,125,123,125,113,105,120,98,109,117,115,127,122,135,119
111,120,125,121,132,137,95,121,145,136,122,120,118,132,210,118,123,92,113,112,111,104,59,122,128,126,122,120,120,122,121,120,125,132,129,128,126,122,113,121,111,123,123,131,120,113,108,121,122,122,113,101,106,126,182,119,110,117,124,136,130,102,131,120,120,122,118,113,114,112,108,121,117,121,117,118,120,113,102,121,122,121,125,119,126,119,140,120,122,131,126,132,126,155,190,119,104,111,114,111,123,127,27,122,118,128,123,111,105,121,101,121,127,120,123,133,125,114,154,120,118,124,119,117,118,133,116,121
122,129,122,121,121,121,92,120,161,95,118,120,119,120,117,121,67,124,118,115,123,108,137,120,149,125,126,123,123,164,76,121,115,123,117,115,115,127,225,118,118,124,120,120,116,106,92,121,126,123,127,126,111,117,158,119,116,120,124,125,129,107,65,122,126,117,117,120,121,124,118,120,120,122,118,109,113,122,120,120,120,119,119,129,121,120,119,119,116,118,114,106,103,110,52,121,122,124,120,124,128,128,155,119,114,136,125,124,119,116,157,120,132,113,114,116,120,115,153,119,84,116,122,134,128,135,204,118
134,130,120,118,118,113,108,121,125,125,118,116,115,110,74,121,97,121,119,117,117,125,108,120,136,121,119,120,128,125,71,122,113,133,126,128,119,118,126,121,129,124,117,110,100,122,109,121,106,118,121,130,138,113,123,121,120,122,121,130,127,130,107,121,119,124,120,117,119,139,153,120,120,119,116,111,105,113,117,121,123,132,127,131,123,131,113,120,100,113,129,131,135,133,147,119,122,122,116,118,115,123,93,121,112,119,120,126,135,125,106,120,127,123,122,119,112,91,163,119,97,117,126,131,121,120,156,119
126,124,119,113,119,122,107,120,107,120,120,117,121,123,113,121,156,130,124,127,130,134,152,120,104,121,121,122,120,125,115,120,137,124,121,120,119,115,113,121,121,132,123,121,119,125,124,121,114,125,119,117,114,122,121,120,115,122,123,133,137,112,109,120,129,116,118,125,117,115,128,119,120,125,122,120,115,133,107,120,131,124,127,127,126,134,117,120,110,124,124,126,134,126,120,120,132,111,119,117,119,107,56,122,123,126,123,129,121,135,198,118,91,123,116,108,109,87,71,121,121,116,127,135,139,131,148,120
125,124,123,128,122,120,115,120,116,122,117,113,113,119,118,120,83,132,121,121,123,126,120,121,124,105,113,117,116,102,100,121,99,112,120,123,125,126,128,121,130,131,121,119,115,119,120,121,136,139,124,124,129,116,107,121,92,100,115,118,120,121,141,120,119,125,119,123,119,123,165,119,116,122,118,118,118,110,113,120,126,123,123,127,126,122,151,122,121,123,118,122,116,119,217,241,134,120,125,123,125,132,131,242,114,123,119,118,116,123,103,242,123,117,120,120,118,113,121,240,111,117,116,117,110,118,86,240
108,125,124,128,138,114,145,242,134,126,123,129,122,127,125,242,124,125,125,132,134,108,119,242,103,110,119,118,116,124,111,224,114,137,122,123,123,144,136,188,113,107,116,116,117,133,107,158,110,131,124,123,124,111,119,152,133,107,112,102,108,110,77,146,148,136,129,138,136,137,231,131,75,109,118,127,118,114,105,126,127,126,114,111,114,120,123,124,131,123,122,124,124,115,108,130,120,122,118,122,120,127,131,120,114,119,118,111,111,113,98,121,122,123,114,110,101,104,138,125,113,127,130,134,139,139,241,124
130,123,119,104,122,125,58,132,112,115,116,122,130,121,157,120,123,134,121,121,115,119,116,125,101,102,114,110,111,119,117,125,87,148,128,122,110,108,118,118,184,105,117,121,128,119,142,109,116,131,121,120,117,114,85,115,125,128,123,121,118,121,149,128,114,122,119,113,118,120,79,126,123,125,121,130,143,144,242,115,118,123,122,117,129,124,100,122,122,119,119,121,122,106,117,125,125,125,120,115,127,144,125,122,116,119,123,125,116,111,54,119,125,122,120,125,127,135,224,120,132,130,119,118,120,124,103,130
134,113,113,100,94,102,132,128,155,128,123,126,151,164,187,119,125,126,124,136,135,128,181,114,149,137,122,114,110,106,111,124,83,124,119,114,106,101,13,125,90,125,119,132,144,155,223,114,121,102,116,120,118,113,94,121,122,131,126,123,120,120,112,121,126,122,120,113,99,106,113,115,121,125,125,134,128,141,105,110,117,120,124,126,126,130,96,126,122,122,121,114,112,121,115,122,126,118,117,122,126,103,142,119,124,120,111,106,106,138,91,114,123,137,133,126,118,141,242,115,116,102,119,121,125,119,103,129
147,119,115,115,119,132,129,121,144,142,131,121,107,86,139,118,75,110,124,148,166,143,54,128,147,86,113,123,115,131,167,119,140,136,122,115,112,113,110,119,103,144,125,122,123,126,100,107,97,107,117,120,124,105,86,107,97,97,116,122,122,79,133,100,137,121,121,123,122,136,93,111,115,127,119,117,115,111,111,106,122,118,116,116,121,132,117,107,119,123,125,129,107,88,78,125,120,122,123,122,126,156,124,118,121,124,121,121,122,117,145,115,117,117,117,104,115,113,93,116,109,123,127,118,133,164,241,120
112,127,119,128,120,122,95,126,119,115,119,114,113,106,91,134,122,136,122,118,118,135,122,145,120,104,118,123,139,125,118,152,113,138,124,123,113,126,130,123,145,119,115,112,112,124,122,103,100,118,123,124,122,108,113,102,144,132,121,113,105,130,145,96,131,114,127,139,147,140,213,94,124,124,121,122,117,118,132,98,116,122,119,112,110,106,81,118,133,120,118,133,146,164,242,136,118,127,132,125,125,109,187,138,116,120,118,112,109,119,95,140,116,122,120,119,116,109,106,151,120,119,125,123,135,149,147,161
111,120,121,126,118,71,12,145,117,132,126,127,128,140,235,123,129,126,119,116,116,120,131,131,162,118,117,122,126,117,110,135,122,119,116,115,117,100,82,107,113,113,127,141,132,143,210,88,120,130,120,115,113,116,112,101,112,124,122,123,125,127,126,98,117,112,122,112,106,117,120,109,119,123,118,130,121,100,116,103,147,117,125,122,130,113,72,106,120,125,120,116,114,143,144,119,122,127,124,127,135,140,130,136,120,120,122,128,131,115,78,139,128,126,120,122,123,125,177,129,123,113,116,109,112,117,97,133
138,130,122,131,146,123,113,127,111,111,121,131,124,126,135,120,110,131,125,121,120,120,110,120,154,111,119,116,109,114,117,122,105,114,116,112,120,105,101,110,111,124,118,114,110,122,118,113,125,134,119,127,131,127,118,107,132,120,121,118,115,116,119,102,130,130,120,125,131,141,189,102,111,114,122,131,131,106,47,111,123,124,121,119,119,127,81,117,118,122,118,115,111,115,108,118,119,119,121,119,119,117,123,128,115,117,113,116,105,96,41,120,125,125,119,125,135,131,223,110,120,119,118,120,110,90,109,117
124,120,129,146,127,106,120,116,115,119,116,114,123,125,201,118,103,135,125,108,107,121,111,127,149,103,123,140,130,120,114,127,122,123,117,112,114,122,128,113,128,126,121,121,123,136,178,107,120,129,122,119,117,107,71,107,120,121,123,124,122,130,181,90,123,129,120,118,113,106,84,103,101,109,122,127,126,137,201,108,119,122,122,120,118,115,66,95,120,123,126,125,133,112,90,103,125,124,121,132,132,163,226,109,114,117,113,103,120,133,98,118,130,129,131,136,128,123,129,133,115,123,120,126,126,127,143,145
106,125,122,118,125,153,111,130,129,96,115,124,142,108,87,135,112,119,122,127,114,121,139,146,132,136,122,118,123,125,115,133,132,131,121,119,121,109,89,99,110,89,111,120,122,131,204,84,124,131,123,134,134,126,125,86,112,131,124,121,118,113,97,63,121,124,124,120,118,125,127,0,117,121,121,117,111,109,112,45,122,121,120,126,132,137,106,79,123,121,122,120,125,121,154,94,120,120,118,114,115,122,110,101,115,119,117,117,116,119,99,92,129,128,122,120,127,99,148,0,111,121,120,106,104,109,49,0
119,114,122,139,130,106,96,0,137,126,118,116,119,116,113,0,107,118,117,119,124,106,120,0,122,136,129,132,132,136,166,33,140,112,123,130,124,126,140,72,95,108,114,114,111,100,43,95,121,133,124,122,129,154,211,104,91,108,117,126,125,112,134,111,75,127,121,127,135,124,95,115,151,110,122,121,109,115,169,117,105,125,124,125,122,119,67,119,150,120,120,122,121,117,120,119,114,122,121,118,114,106,113,119,122,116,126,122,123,144,174,117,124,125,127,131,126,122,113,119,129,114,115,113,114,101,105,119
126,124,118,112,116,128,130,120,119,124,124,132,129,128,67,121,109,105,118,122,120,101,112,120,127,122,121,120,115,125,111,119,108,122,119,117,116,119,116,120,115,116,113,114,113,120,113,120,95,111,124,119,116,108,110,121,101,104,117,122,121,123,85,120,124,130,123,122,120,134,210,118,119,122,119,118,121,118,79,121,119,121,121,127,125,113,177,120,121,120,121,129,125,115,82,121,119,117,118,121,116,124,140,120,126,120,124,117,118,140,162,120,121,124,126,135,116,99,92,121,118,118,115,112,122,116,117,120
144,134,122,122,111,129,119,119,121,109,121,120,123,115,148,119,113,118,122,117,111,113,128,120,132,131,130,140,145,137,78,121,108,128,121,120,118,116,114,120,162,121,120,120,119,118,113,120,4,79,113,120,121,128,123,120,151,128,122,122,115,101,118,121,135,127,122,122,122,124,116,120,119,122,119,119,119,127,144,120,118,122,123,129,128,116,67,121,124,122,123,124,124,108,104,121,118,122,121,121,119,122,118,120,123,124,122,131,129,122,149,120,115,118,119,114,113,104,97,121,130,119,126,131,128,133,133,120
121,125,120,121,120,118,118,119,122,123,119,119,122,126,120,120,108,124,123,126,124,124,168,119,135,122,118,116,125,118,146,120,91,105,119,124,121,116,93,121,114,126,123,125,124,123,128,120,133,133,124,122,120,120,121,120,127,113,119,121,121,120,119,120,114,123,121,121,120,117,113,120,121,124,123,125,127,132,136,120,120,121,122,125,121,119,117,120,122,121,119,122,120,118,115,121,118,120,118,111,112,118,126,120,121,122,124,134,129,114,105,121,120,122,122,124,119,124,139,120,120,121,119,122,119,121,119,120
121,121,121,118,123,117,119,120,120,118,117,117,121,121,121,131,121,122,121,122,123,121,119,116,120,122,122,123,119,120,119,118,117,113,118,121,119,118,128,120,119,122,122,124,123,124,121,120,120,124,122,122,120,120,121,120,116,124,122,122,121,120,118,120,138,119,119,121,121,120,119,117,119,121,122,120,121,119,117,166,121,122,120,123,119,119,98,198,122,119,121,115,122,117,120,128,122,122,120,128,121,125,116,154,122,122,122,129,123,122,122,153,122,123,118,116,121,129,121,144,120,119,118,105,117,117,120,154
120,121,120,127,122,125,121,164,118,114,116,118,117,117,122,123,126,126,124,124,122,125,122,159,118,122,121,125,120,126,121,220,119,121,122,122,122,120,121,241,120,121,120,121,121,117,120,242,122,121,121,121,123,138,121,243,121,122,121,122,119,81,119,241,123,122,122,123,123,133,122,240,114,120,121,117,115,128,121,242,129,123,122,129,129,117,123,241,119,122,120,117,121,118,118,240,119,120,122,125,120,121,122,241,123,121,122,127,121,120,122,204,118,121,121,120,116,125,121,143,121,122,120,116,133,116,122,126
118,123,121,121,117,120,123,123,119,120,121,121,120,112,119,121,134,121,121,122,123,125,124,121,116,122,121,120,121,126,122,122,120,121,122,124,121,122,122,121,120,122,120,119,118,134,120,121,119,121,121,123,126,113,125,120,132,122,121,119,126,126,122,121,112,121,121,123,118,117,123,121,119,122,121,120,122,125,121,121,121,121,120,122,124,120,122,121,120,122,121,122,119,127,121,121,119,120,119,117,122,118,121,120,121,122,122,123,120,125,121,120,118,121,120,123,121,120,121,121,119,121,121,122,121,123,121,120
127,123,121,123,122,118,122,121,120,120,121,125,122,127,121,120,123,122,122,125,121,106,120,121,117,124,121,118,116,113,119,121,115,122,122,126,124,122,124,121,121,122,122,122,121,122,123,120,119,120,120,122,122,124,121,120,119,122,121,122,120,120,119,120,125,122,121,123,121,125,121,121,115,122,123,124,121,110,121,120,131,123,122,119,126,120,121,120,121,121,120,118,118,115,120,121,119,120,119,122,121,121,121,121,122,121,121,123,121,124,122,120,122,121,121,123,121,121,122,120,120,121,120,121,123,121,121,120
119,122,122,122,120,121,121,121,121,121,121,122,121,120,122,120,119,121,120,121,121,142,121,121,123,122,121,120,119,116,121,120,121,121,121,122,122,123,121,120,121,121,120,122,121,122,121,121,120,121,122,122,121,116,120,120,121,121,121,122,122,119,120,120,121,123,121,122,121,122,121,121,121,120,121,122,121,121,121,120,121,122,121,121,120,131,123,121,120,122,120,122,121,121,121,121,121,121,120,122,123,121,121,121,118,121,122,121,120,119,121,120,121,121,120,123,123,136,121,121,121,121,121,123,119,103,119,120
117,121,120,115,119,122,120,120,125,121,121,123,121,121,121,120,123,122,122,124,122,126,123,121,114,122,120,122,122,116,121,121,122,120,120,121,121,119,120,121,120,122,120,122,122,117,121,120,125,122,122,122,121,114,121,121,119,122,120,121,120,109,120,121,124,121,121,122,120,119,120,120,123,120,120,122,120,121,121,120,118,123,122,122,121,122,122,120,132,121,122,122,121,119,122,120,118,123,121,121,122,114,121,121,120,122,121,121,118,123,122,121,121,120,120,121,121,129,123,120,120,121,121,122,122,115,120,120
119,120,120,121,120,122,121,120,128,123,122,119,121,125,123,121,118,123,121,121,121,118,122,121,124,119,119,120,121,120,121,121,123,122,120,123,121,121,122,121,118,121,121,123,121,132,122,120,119,122,121,117,119,121,120,120,120,122,121,123,122,120,120,120,122,122,125,122,120,118,121,120,120,120,118,122,121,121,121,120,125,122,121,123,122,122,121,120,122,120,120,121,120,121,121,121,120,122,121,121,122,122,121,121,119,122,122,122,121,121,121,120,120,123,121,119,120,121,121,121,120,119,120,120,122,121,121,120
121,121,120,122,121,121,121,108,119,122,123,125,122,121,121,102,121,122,120,125,118,121,121,103,119,120,122,121,121,121,121,100,121,122,121,124,121,135,123,101,121,122,121,122,121,119,121,106,119,121,122,123,122,121,120,102,125,121,121,122,121,121,123,107,119,121,121,122,121,118,120,109,119,121,121,122,121,122,121,93,121,122,121,121,120,122,121,106,120,123,121,121,120,121,121,106,120,119,121,122,121,124,122,103,121,123,121,121,120,113,122,120,121,122,121,121,120,127,121,104,120,121,121,122,121,119,120,107
120,122,121,121,121,120,121,108,121,122,121,122,121,122,122,108,123,121,121,122,122,116,120,107,120,122,122,123,122,121,121,109,120,119,119,121,121,121,122,108,121,122,125,122,120,120,121,109,120,121,119,122,120,120,121,109,120,121,120,123,122,121,120,110,121,123,121,122,120,120,120,109,120,121,121,122,121,118,121,110,120,120,121,121,121,121,122,112,121,122,121,121,120,119,121,110,121,122,121,121,121,121,122,110,121,121,120,122,121,121,122,111,121,122,121,122,121,120,122,111,120,121,121,118,122,121,122,112
121,121,120,122,121,119,119,112,120,121,121,122,122,122,121,115,121,122,122,122,121,122,122,107,120,121,121,122,122,121,120,113,121,122,122,122,120,119,121,114,121,121,121,122,121,121,122,114,121,122,122,122,121,121,121,113,120,121,120,121,121,122,122,114,121,121,121,122,120,121,121,115,120,122,122,122,121,120,120,114,121,122,122,122,120,121,121,113,121,121,121,122,121,120,121,113,120,122,122,123,121,120,121,114,121,122,121,122,121,121,122,116,121,121,122,122,121,121,122,115,121,121,120,122,122,122,122,114
120,122,121,122,121,120,121,114,120,122,122,122,122,121,122,115,120,122,124,122,122,121,120,114,121,122,120,122,122,122,122,116,120,121,121,122,121,121,121,115,121,122,121,122,121,121,121,114,120,122,121,122,121,121,121,116,121,121,120,122,121,121,120,116,121,121,120,121,121,121,121,113,122,120,121,122,121,121,122,126,121,122,121,121,121,121,121,115,120,122,121,122,122,121,120,115,120,121,120,121,121,121,122,117,121,122,121,122,120,120,121,116,121,122,121,122,121,120,121,116,121,122,121,121,120,120,121,116
122,122,121,122,121,121,122,118,121,120,120,122,121,121,122,116,121,122,120,121,120,121,121,116,120,122,121,122,121,122,121,116,121,122,122,122,121,120,122,117,120,121,120,122,122,120,121,116,120,121,120,122,122,121,122,117,120,121,122,122,121,121,121,118,121,122,120,121,121,121,121,118,121,121,122,122,121,120,121,117,120,121,121,122,121,121,121,117,121,121,120,121,121,121,121,117,121,122,121,121,121,121,122,117,121,121,121,122,122,121,122,117,121,122,120,121,121,120,121,118,121,122,121,122,121,120,121,117
121,121,120,121,121,121,121,118,120,121,121,122,122,121,121,118,119,120,120,122,122,121,118,113,122,122,121,121,120,121,122,119,120,121,121,121,121,121,121,117,120,122,122,124,120,121,121,118,120,121,119,120,122,124,121,118,120,122,122,123,121,121,121,117,120,120,117,123,122,119,121,118,120,123,124,127,120,126,121,118,120,122,120,121,120,120,120,117,121,121,120,122,121,126,122,119,120,121,121,122,121,121,121,118,121,121,121,122,121,121,122,119,121,122,121,122,121,122,122,119,121,122,121,121,121,122,122,118
121,121,120,121,121,121,121,118,121,122,121,121,120,121,121,118,120,121,121,122,121,121,122,119,120,121,120,121,121,121,121,118,121,121,121,121,121,122,121,118,120,122,120,122,121,125,122,118,121,120,120,122,122,123,120,118,121,122,121,122,121,121,121,119,120,121,121,122,121,122,121,119,121,122,121,122,121,121,121,119,121,121,120,122,121,121,122,119,121,122,122,122,120,120,121,119,121,121,121,122,122,121,121,119,121,122,121,121,121,121,122,120,120,120,120,121,121,121,120,118,121,121,121,122,121,122,121,119
120,122,121,122,120,121,121,119,121,123,122,123,121,121,121,119,120,122,122,122,122,121,121,119,121,122,122,121,121,120,121,119,122,122,121,121,121,121,121,119,121,121,120,121,121,121,121,120,120,120,120,121,121,121,121,119,120,121,121,122,121,122,121,119,121,122,121,122,121,121,121,120,119,121,121,122,121,121,121,119,123,121,121,122,121,121,121,119,119,121,121,121,120,120,120,119,120,121,120,122,121,121,121,119,121,122,122,123,121,121,121,119,121,122,121,121,121,121,121,119,120,120,120,122,121,121,122,119
121,122,120,122,121,121,122,119,121,122,121,121,121,121,122,119,120,121,121,122,121,122,121,119,121,122,122,121,121,121,122,120,120,122,121,122,122,121,121,119,121,123,121,122,121,121,121,119,120,118,119,121,120,121,121,120,119,121,120,121,121,121,121,119,121,123,122,123,122,122,121,120,121,122,122,123,122,122,122,120,121,122,121,121,121,121,121,119,121,122,121,121,121,120,121,120,121,121,121,122,122,121,121,119,121,122,121,121,120,121,121,120,121,122,120,121,121,121,121,120,121,122,121,122,121,120,121,119
120,122,122,121,120,121,121,119,121,122,121,122,121,121,121,120,119,119,120,122,121,121,121,119,121,122,121,122,121,120,121,119,119,122,122,123,121,120,121,120,121,122,121,122,121,122,121,119,121,121,120,122,121,120,121,119,122,121,121,122,121,122,121,119,120,121,120,122,121,121,122,120,121,123,121,121,121,121,121,120,121,119,121,122,121,122,121,120,121,122,121,122,121,120,121,119,120,121,121,121,121,121,122,120,120,122,121,122,121,121,121,119,120,121,121,122,122,122,122,121,120,120,120,122,121,121,122,119
120,122,122,122,122,121,120,119,121,122,121,122,121,122,121,120,121,122,120,121,121,121,121,120,120,121,121,122,122,121,121,119,121,122,122,121,120,121,122,120,121,121,120,121,121,121,122,119,120,122,120,121,121,121,122,121,122,122,121,121,121,122,121,120,120,122,121,121,120,121,121,120,121,122,121,121,121,121,121,120,121,122,120,121,120,120,121,120,121,122,122,122,121,121,122,120,121,122,121,122,121,121,121,119,121,123,121,122,120,121,121,121,119,120,120,122,121,121,121,119,119,119,120,122,121,121,121,120
121,123,121,122,121,121,121,121,120,123,121,122,121,121,121,120,121,121,120,121,121,121,121,120,121,122,121,121,121,121,122,120,121,121,122,122,121,120,121,120,121,122,121,122,121,121,122,120,120,121,120,122,121,121,122,120,121,122,122,122,121,121,121,119,120,121,121,122,122,121,121,119,121,122,121,121,121,121,122,120,120,123,121,121,121,121,121,121,123,121,121,122,121,120,121,120,121,124,122,122,121,121,122,122,121,122,122,122,121,121,121,120,119,121,121,122,121,122,123,121,124,123,121,121,120,121,121,120
117,122,121,122,121,120,121,119,124,121,121,121,120,121,121,120,118,122,121,122,120,121,122,120,119,120,121,122,121,121,120,119,120,123,122,122,122,122,122,120,121,123,121,122,121,122,122,121,120,123,120,121,121,121,122,121,121,122,121,121,121,121,121,120,120,121,121,122,122,121,121,120,120,121,121,121,121,121,122,120,121,122,121,122,121,120,121,120,120,121,121,122,122,121,121,120,120,121,121,122,121,122,121,120,121,122,122,122,121,121,121,121,121,121,120,121,121,121,121,121,121,121,121,121,121,121,122,120
121,121,121,122,121,120,121,120,121,122,120,121,121,121,121,120,121,123,122,123,122,121,122,121,120,122,120,122,121,121,120,120,120,118,120,122,122,122,121,119,119,122,122,122,121,120,121,120,122,122,121,122,122,122,122,121,120,122,120,121,121,121,122,121,123,123,122,122,121,120,121,121,119,120,121,121,120,121,121,120,120,121,121,122,122,121,121,120,121,121,121,121,120,120,120,119,120,121,120,121,121,121,121,120,121,122,121,121,121,121,121,120,120,121,121,122,121,122,122,120,121,122,120,121,121,121,122,121
120,120,122,122,121,121,121,120,120,122,120,122,121,121,121,120,120,121,120,122,122,121,121,119,122,122,122,122,122,121,122,121,121,122,122,122,121,121,121,119,121,122,121,122,121,121,121,120,120,119,119,121,121,121,120,119,121,123,122,122,121,122,122,122,118,122,121,121,121,121,121,120,123,120,120,122,122,122,121,120,120,123,121,121,120,121,121,120,120,121,121,122,121,121,121,119,121,122,120,121,121,121,121,120,120,122,121,121,121,121,121,121,121,120,120,121,120,121,120,119,120,123,121,121,120,121,123,122
121,122,120,122,122,122,122,120,121,121,121,121,120,120,121,120,120,121,120,121,121,121,121,121,121,122,121,121,120,120,121,120,121,122,121,123,121,122,122,121,120,122,122,122,121,120,120,120,120,121,120,122,121,121,122,121,120,121,121,122,122,122,121,119,121,122,120,121,120,121,122,121,121,122,120,121,121,121,121,120,120,121,121,122,121,122,121,120,121,121,121,121,120,121,121,120,121,122,120,122,121,121,121,120,119,120,121,121,121,121,121,120,121,122,120,121,121,121,122,121,119,119,120,121,121,121,121,119
121,122,120,122,121,121,121,120,121,120,122,123,121,121,122,120,120,122,121,122,122,121,121,119,121,122,121,121,121,121,121,120,120,121,121,122,121,121,121,120,121,121,121,122,122,122,122,120,121,122,121,122,121,121,121,121,120,121,121,122,121,120,120,119,122,122,120,121,120,121,122,121,121,121,120,121,121,121,121,120,121,122,121,122,121,121,121,119,120,122,121,121,120,121,121,120,121,122,122,121,121,121,122,121,121,121,121,122,121,121,121,120,121,120,120,121,121,121,122,120,121,122,121,122,121,121,121,120
120,121,121,121,121,121,121,120,120,121,121,122,121,121,121,120,121,121,121,122,122,122,122,120,119,120,121,122,122,121,120,119,121,120,121,121,121,121,121,121,120,123,121,122,121,121,121,120,121,122,122,122,121,121,122,121,120,121,121,122,122,121,121,119,121,121,120,122,121,121,121,120,120,121,121,122,121,120,121,120,121,122,123,122,121,120,121,120,120,122,120,122,120,120,121,120,121,121,120,121,121,121,122,121,120,122,121,122,121,121,122,119,120,121,122,122,121,121,121,120,121,121,120,121,121,121,121,120
121,121,121,122,121,120,121,120,121,121,122,122,121,121,121,120,119,121,121,122,121,122,121,120,121,121,121,122,122,121,122,120,120,122,121,121,120,120,121,121,121,121,120,122,121,121,121,120,120,122,121,121,121,121,121,120,121,123,122,122,121,121,122,122,121,121,121,122,121,120,121,120,121,122,121,122,121,120,121,120,120,123,121,121,120,121,120,119,120,121,121,122,121,120,122,122,121,121,121,122,121,121,121,119,120,122,121,121,121,121,121,120,120,122,120,121,119,120,122,120,121,121,121,122,121,122,122,120
119,122,121,122,121,121,121,120,122,120,120,121,121,121,122,121,120,122,121,121,121,121,121,121,121,123,122,122,121,121,122,121,121,122,122,122,122,122,122,120,119,120,120,122,121,121,122,120,120,119,120,122,121,121,121,120,121,123,121,121,121,121,121,121,120,120,120,121,121,121,122,121,120,121,120,121,121,121,122,120,121,121,120,121,121,121,122,121,120,122,121,122,121,121,121,120,121,122,122,122,121,121,121,120,122,122,121,122,122,122,123,122,121,121,120,121,121,121,121,121,121,122,121,122,121,120,121,120
120,121,121,122,121,120,121,120,121,123,121,122,122,122,122,121,121,121,121,122,121,122,122,122,120,121,120,121,121,121,121,120,121,121,120,121,121,122,121,120,121,122,121,122,122,122,121,120,122,122,122,122,121,120,121,120,120,121,120,121,120,121,122,120,121,122,121,122,121,121,121,120,120,121,121,122,121,121,121,120,121,122,121,122,120,121,121,120,121,121,121,122,121,121,121,120,119,121,121,122,121,122,121,120,121,122,121,121,121,122,122,120,121,122,122,122,121,121,122,121,121,121,120,121,121,121,122,120
121,121,119,121,121,121,122,121,120,122,122,122,121,121,121,120,123,122,121,122,122,122,122,121,120,121,121,122,121,120,121,120,120,122,121,122,121,120,120,120,121,122,121,121,120,120,121,121,120,121,121,122,121,121,122,120,120,122,122,122,121,120,121,120,120,121,121,122,121,121,121,120,119,123,121,121,121,121,122,121,122,119,120,122,121,121,121,120,119,122,120,122,122,121,121,120,120,121,121,122,122,121,121,119,121,123,121,121,121,121,121,120,120,122,121,121,121,121,121,120,121,122,121,122,121,122,122,120
121,122,121,122,121,120,120,119,121,122,122,122,120,121,121,121,121,122,121,121,120,120,121,120,121,122,122,123,122,121,122,121,121,120,119,120,119,119,121,120,120,122,121,122,122,122,121,120,120,119,120,122,121,121,121,121,123,123,121,122,121,120,120,119,120,122,122,122,120,121,120,119,118,121,121,122,122,121,120,119,123,121,121,121,120,121,121,121,119,121,121,121,120,121,121,120,120,121,120,121,121,121,122,121,120,122,121,122,121,121,121,120,120,122,120,121,121,121,121,120,121,121,120,121,121,121,121,120
121,122,121,121,121,121,122,120,120,122,121,122,120,120,121,121,121,121,121,122,121,121,121,120,121,122,121,121,121,121,121,120,121,122,121,122,122,121,121,121,121,121,121,122,121,120,122,121,121,123,121,122,120,120,122,121,120,120,121,122,120,120,122,121,121,124,121,121,121,121,121,120,121,121,120,121,121,121,122,121,122,121,120,121,121,121,121,120,120,121,121,122,121,121,121,120,120,122,121,122,120,121,121,120,121,122,121,122,122,122,122,121,121,122,122,123,122,121,121,120,121,122,122,122,121,120,121,121
120,121,121,123,122,121,121,120,121,121,121,122,122,122,121,120,121,122,121,121,120,121,121,120,121,121,120,121,121,121,121,121,121,122,121,121,121,121,122,121,120,121,121,121,121,121,122,120,121,121,120,121,121,121,121,120,121,122,122,122,120,120,122,121,119,120,121,122,121,121,120,120,121,122,122,121,121,121,121,120,122,122,121,122,121,121,121,120,120,122,121,122,120,121,121,120,120,120,121,122,121,121,121,120,121,122,120,121,121,121,121,121,119,122,121,121,121,121,122,120,122,121,121,122,122,121,122,120
120,121,121,122,122,122,121,120,118,119,120,122,121,121,120,119,121,122,121,122,121,121,120,120,119,120,121,121,121,120,121,120,121,121,120,122,122,122,122,120,119,121,121,122,121,121,120,120,121,122,120,122,121,121,121,120,121,121,121,122,121,121,121,120,121,122,121,121,120,120,121,121,121,122,122,122,121,120,121,120,120,121,121,122,121,121,121,120,120,121,121,121,121,121,122,121,121,122,121,122,120,121,121,120,120,120,121,122,121,120,121,120,121,122,121,122,121,121,122,120,121,122,122,122,121,122,122,122
120,122,122,122,121,121,121,120,121,122,122,122,120,120,121,120,120,121,121,122,121,122,121,120,123,122,121,121,121,121,121,121,118,120,120,121,121,122,122,120,119,121,121,122,121,121,121,121,121,122,122,121,120,120,121,120,120,122,121,122,121,121,120,120,121,121,120,121,121,121,121,121,120,121,121,121,121,121,121,121,121,122,122,122,121,120,121,120,121,122,121,121,121,121,121,121,121,122,121,122,121,122,121,119,120,121,121,122,121,121,122,120,120,121,121,122,121,120,121,119,120,122,122,122,121,121,121,120
121,122,122,122,121,121,122,121,121,121,121,122,121,121,121,120,120,122,121,122,121,121,121,120,120,121,121,122,120,120,121,120,121,121,122,122,122,120,121,120,122,122,121,123,122,121,121,121,119,120,120,121,121,121,121,120,120,121,121,122,121,121,121,121,120,122,122,122,122,121,122,121,122,122,122,123,121,121,121,120,121,122,121,122,121,121,121,120,121,122,121,121,120,121,121,120,120,120,121,121,121,120,121,121,119,122,122,122,122,121,121,120,120,122,121,121,120,121,121,120,121,121,120,122,121,122,120,119
121,122,121,121,120,121,121,120,120,122,121,122,120,120,121,120,120,121,121,122,121,121,122,120,120,122,122,122,121,121,121,120,121,121,121,122,121,121,121,121,121,122,121,121,121,121,122,121,120,122,121,122,121,120,121,121,122,122,121,122,120,121,121,121,119,121,121,122,121,121,121,120,121,122,121,121,121,121,121,120,121,122,122,122,121,122,122,120,121,121,120,121,120,120,121,121,121,121,121,122,122,121,121,120,120,121,120,121,121,121,122,121,121,122,121,122,121,122,122,120,121,122,121,121,120,121,121,120
120,121,121,122,121,120,121,120,122,122,122,122,122,121,122,121,119,120,121,122,121,120,121,120,122,122,122,122,121,120,120,120,119,122,121,121,120,121,121,120,121,121,121,122,121,121,121,120,121,122,121,121,120,121,121,121,119,121,121,122,122,121,121,120,122,121,120,121,121,121,122,121,120,122,121,121,121,121,122,120,121,122,121,122,121,122,121,120,121,121,122,122,122,122,121,120,120,121,121,122,121,121,120,120,121,121,121,121,121,121,121,121,121,122,120,122,121,121,122,121,120,121,122,122,121,122,122,120
122,122,121,122,121,120,121,120,120,122,121,121,121,121,121,120,120,121,120,122,121,121,121,120,121,122,121,121,121,121,121,121,121,121,121,122,121,121,120,120,121,122,121,122,121,120,121,121,120,121,121,122,121,121,121,119,120,121,121,122,121,122,122,121,120,121,121,122,122,121,120,120,121,122,121,121,120,121,121,120,121,122,121,122,121,120,121,120,120,121,122,122,121,120,121,120,121,123,122,122,121,121,121,120,121,120,120,122,122,121,121,119,120,121,122,122,121,121,122,121,120,122,121,122,121,121,121,120
121,121,120,121,121,121,122,121,121,122,120,121,121,121,122,121,120,122,122,122,120,120,120,120,121,121,121,121,120,121,121,120,121,122,121,121,120,121,121,120,123,123,122,123,121,121,122,121,121,122,122,122,120,121,121,121,120,122,121,121,120,121,121,120,121,121,121,122,122,121,121,121,120,121,120,122,121,122,121,120,121,122,121,122,121,121,121,120,121,121,121,121,121,121,121,120,120,120,120,122,121,121,121,120,120,122,122,122,121,121,121,120,121,119,121,121,120,121,121,121,120,122,121,121,121,121,122,120
121,122,121,122,122,121,121,120,121,122,121,122,121,120,121,120,120,123,122,123,121,121,122,120,122,120,121,121,120,121,121,121,119,122,122,122,121,121,121,120,123,122,121,121,121,121,122,121,120,122,121,122,121,121,121,120,121,122,120,121,121,121,122,121,120,122,121,121,120,120,121,120,121,121,120,122,121,122,122,121,120,121,121,122,122,122,120,119,120,120,120,121,121,121,122,120,121,121,121,121,121,121,121,120,120,122,121,122,121,121,121,121,121,121,121,122,121,122,121,120,120,122,121,121,120,120,121,120
120,120,121,122,122,121,121,119,120,121,121,122,121,122,122,121,120,121,121,122,121,121,121,120,121,123,122,122,121,121,122,121,120,120,121,122,122,121,121,120,120,121,121,122,121,121,122,121,120,122,121,122,121,121,121,120,122,123,121,122,121,122,122,121,120,121,121,122,122,120,121,120,120,122,122,122,121,121,121,120,120,122,122,122,121,120,121,120,121,121,121,122,121,121,120,120,121,122,121,122,121,121,121,120,120,122,122,122,121,121,121,120,122,121,121,122,121,121,122,121,119,119,119,121,121,121,121,120
119,121,121,122,121,121,121,119,121,123,121,121,121,122,122,121,121,120,121,122,121,122,122,120,120,122,121,122,121,121,120,120,121,122,121,122,121,122,122,121,121,122,121,122,121,121,122,121,120,121,121,122,121,122,121,120,121,121,121,121,121,121,121,120,121,122,122,122,120,121,121,120,120,121,121,122,121,121,121,119,121,122,121,121,121,121,121,120,120,122,121,122,121,120,121,121,121,122,121,122,120,120,120,120,119,120,121,122,121,121,121,120,120,121,120,122,121,121,122,121,120,123,122,122,121,121,121,120
120,121,121,121,121,121,121,121,122,124,122,122,121,122,122,121,120,120,120,122,121,121,122,121,120,120,119,121,121,121,121,120,120,122,122,122,121,122,121,119,120,122,122,123,122,121,122,121,120,122,121,121,121,121,122,121,121,122,121,121,121,120,121,120,119,121,121,122,122,121,121,120,120,122,120,122,121,121,121,121,121,121,121,121,120,121,120,119,122,122,121,121,120,121,121,121,119,122,121,122,121,120,120,119,120,122,120,122,121,121,121,120,121,121,121,122,121,121,121,120,121,121,120,121,121,121,122,121
119,122,121,121,121,121,121,120,125,122,120,121,121,121,122,121,119,121,122,122,121,121,122,120,121,121,120,121,121,121,122,121,121,122,122,122,121,121,121,120,121,122,120,121,121,122,122,120,120,121,122,122,121,121,122,121,121,122,121,121,120,121,121,120,120,120,120,121,121,121,121,120,122,122,121,121,121,121,122,121,120,121,121,122,121,121,122,120,121,121,121,121,120,120,121,120,120,122,121,123,121,120,120,120,120,121,121,122,121,122,122,120,120,120,120,122,121,122,121,120,124,121,120,121,121,121,123,122
120,122,122,122,121,120,120,120,120,122,121,122,121,121,121,121,121,121,120,122,121,121,122,120,121,121,121,123,122,122,121,121,121,122,121,122,120,120,121,120,121,122,120,122,121,121,122,121,122,122,120,121,121,121,122,121,121,122,121,122,121,122,123,121,120,121,121,122,121,120,121,120,120,122,121,122,121,121,120,120,121,122,121,122,121,121,121,120,121,122,121,122,120,120,121,121,120,122,121,121,121,121,121,120,121,121,122,122,121,121,121,120,119,121,121,122,121,121,122,120,120,121,122,122,122,122,121,119
121,121,121,121,120,121,121,120,120,122,122,122,120,121,121,120,121,121,120,121,121,121,122,120,119,122,122,123,122,121,121,121,123,121,121,122,121,121,122,121,120,122,121,122,120,121,122,121,121,121,121,123,121,120,121,120,120,122,121,122,121,120,121,121,121,121,122,122,120,121,121,120,121,121,120,122,121,121,122,120,121,122,122,121,121,121,121,121,119,122,121,122,120,120,121,120,121,120,120,121,121,121,122,120,120,122,122,123,121,121,121,120,121,122,120,122,121,121,121,121,121,122,121,122,121,121,120,120
119,121,121,122,121,122,121,119,121,121,120,122,121,121,122,121,120,122,121,122,121,120,121,120,120,122,122,122,120,120,121,120,121,122,122,123,121,121,121,120,121,121,121,122,121,121,121,120,120,122,121,123,121,121,121,120,121,122,121,121,120,121,121,120,119,121,120,121,121,121,121,119,121,118,120,121,121,121,121,121,119,121,121,122,122,121,121,119,120,122,121,122,122,121,121,120,121,122,121,121,121,121,121,121,120,121,120,122,121,121,122,121,121,122,122,122,121,121,122,121,119,120,121,122,122,122,121,120
124,122,121,121,120,121,121,121,119,122,122,122,120,121,121,120,121,122,122,123,122,121,122,121,121,122,119,121,121,121,121,121,121,120,121,122,122,121,121,121,120,122,121,122,121,121,121,120,120,121,122,123,121,120,121,120,121,121,120,121,121,121,121,120,120,121,121,122,122,121,121,119,121,121,121,122,122,121,121,120,121,121,120,121,121,121,122,121,120,120,121,122,121,121,121,120,121,122,121,122,120,121,121,120,120,122,121,121,121,121,121,120,121,121,120,121,121,121,122,121,120,122,121,122,122,121,121,120
121,121,121,121,121,121,122,121,121,123,121,121,121,121,121,121,119,120,121,122,121,120,121,120,120,121,121,122,122,122,122,120,121,121,121,121,121,121,121,121,121,121,121,122,121,121,121,120,119,122,121,122,122,121,121,120,124,121,121,121,121,121,122,121,119,122,120,121,121,121,122,121,122,121,121,122,121,121,122,121,121,122,121,121,121,121,122,121,121,122,121,121,121,121,121,120,121,121,120,122,121,121,121,120,120,121,121,122,121,121,121,120,120,121,121,122,122,121,121,119,121,121,120,121,121,121,122,120
121,122,121,121,121,121,122,121,121,122,121,122,120,121,122,121,121,122,121,122,121,121,121,120,120,122,121,122,121,121,120,120,121,122,121,122,121,122,121,120,121,122,121,121,120,121,121,120,121,122,120,121,121,121,121,121,121,121,121,122,121,121,121,120,120,120,121,122,121,122,121,120,120,121,120,122,121,121,122,120,121,122,120,121,121,121,121,121,121,122,121,122,122,121,120,120,120,121,120,121,121,121,121,120,122,121,121,122,122,122,121,121,120,122,122,122,121,120,121,120,121,122,122,122,121,120,121,120
119,121,121,122,122,122,121,119,121,121,121,122,121,122,122,121,121,121,120,122,121,121,122,120,120,122,122,121,120,121,121,121,121,122,121,122,121,121,122,121,121,122,121,121,121,121,121,120,121,122,121,121,121,121,121,121,120,121,121,122,121,121,121,120,121,122,121,122,120,121,121,120,121,122,121,121,120,121,121,120,120,121,122,122,121,122,121,119,120,120,120,122,121,121,122,120,120,122,120,121,121,121,122,121,122,121,122,121,121,121,121,120,122,123,121,122,121,121,122,120,120,123,122,122,121,120,121,120
120,121,121,122,122,121,121,120,120,121,121,122,121,121,121,120,121,122,121,122,122,122,122,121,121,120,121,122,120,121,121,120,121,122,121,121,121,121,122,121,120,122,120,122,121,121,122,121,120,121,121,122,121,121,122,120,122,121,121,121,121,121,122,120,120,121,120,122,121,121,122,120,120,122,120,122,121,121,121,120,120,122,121,121,121,121,121,120,119,121,122,122,122,121,120,120,122,122,120,122,121,121,122,121,120,121,121,123,121,121,121,120,121,123,122,121,121,121,121,120,121,122,121,122,121,121,122,121
120,121,121,122,121,121,121,120,121,121,121,121,121,121,121,121,121,122,121,122,121,120,121,121,120,120,120,122,121,121,122,121,121,121,121,122,122,121,121,120,121,123,122,123,121,121,121,121,120,121,121,121,121,121,121,120,122,121,121,122,120,121,122,120,119,122,122,123,122,121,122,121,123,122,121,122,122,121,120,119,120,121,120,122,121,120,121,120,121,122,121,122,120,120,120,120,121,122,122,122,122,122,122,121,120,122,122,121,121,121,121,120,122,122,121,121,121,121,122,121,119,121,121,122,122,121,120,120
121,122,122,122,120,121,121,121,120,121,120,122,121,121,121,120,120,121,121,122,121,121,121,120,121,121,121,121,120,121,122,121,120,121,121,122,121,121,122,120,121,123,122,122,122,121,122,121,121,121,120,121,120,121,122,121,119,120,121,122,122,121,121,121,120,121,120,122,121,121,121,120,121,121,120,121,121,122,121,120,121,122,121,121,120,121,121,120,121,122,120,121,121,121,121,120,121,122,121,122,120,121,121,120,121,122,122,122,121,121,121,120,121,121,121,123,122,121,121,121,120,122,121,122,121,120,121,120
121,121,120,122,122,121,121,120,120,121,121,122,121,121,121,119,121,122,122,122,122,121,121,121,120,121,121,121,120,121,121,119,120,121,121,122,122,121,121,120,120,121,120,122,121,121,121,120,121,122,121,122,121,121,120,120,121,122,121,121,120,121,121,120,120,121,121,121,120,121,121,120,120,121,121,122,121,121,121,121,120,122,121,121,120,121,121,120,121,122,121,122,121,122,122,121,119,120,120,121,121,121,122,120,122,122,121,122,121,121,121,121,121,121,122,122,122,121,120,120,119,121,121,122,121,121,121,120
121,122,121,122,121,120,121,120,120,120,121,122,121,121,121,120,122,122,120,121,121,121,121,121,121,121,121,122,122,121,122,121,120,122,122,121,121,121,121,120,121,122,121,122,121,121,120,120,120,120,120,121,121,121,122,121,121,122,121,122,122,121,121,120,120,121,120,121,121,121,121,120,123,122,121,122,121,120,121,121,120,121,121,122,121,121,121,120,120,121,121,122,122,121,121,120,120,121,121,122,121,121,120,120,120,122,121,122,121,122,121,120,121,121,121,122,121,121,121,120,119,122,121,121,121,121,121,120
122,122,122,122,121,121,122,121,120,121,121,122,121,121,121,120,120,122,122,122,121,120,121,119,120,122,121,121,121,121,121,120,120,121,121,123,122,121,121,121,120,120,121,122,121,121,120,119,121,122,122,122,121,121,120,120,120,121,121,121,121,121,121,121,120,122,121,121,121,121,121,120,120,121,121,122,121,121,122,121,121,122,121,121,121,121,122,121,120,121,121,122,121,122,121,120,121,122,120,122,121,121,122,120,121,121,122,122,122,121,122,121,120,122,120,121,120,121,122,121,122,123,121,121,120,121,121,120
121,122,121,121,121,121,121,121,121,122,121,121,120,121,121,120,121,122,121,121,120,121,121,120,120,122,121,122,121,120,121,120,121,121,120,121,121,121,121,120,121,121,121,122,121,121,122,121,121,122,122,123,121,122,121,121,122,122,120,121,121,121,122,121,120,121,121,122,121,122,121,120,120,121,121,122,122,121,120,120,120,121,120,121,121,121,121,120,120,122,121,122,121,121,122,121,122,121,122,122,121,120,121,120,120,121,121,122,121,121,121,121,120,122,122,122,120,120,121,120,121,122,121,122,121,121,120,120
120,122,121,122,121,120,121,120,121,122,121,121,121,121,121,121,121,122,121,122,120,121,121,121,121,122,121,122,122,121,122,121,121,121,121,121,121,121,121,120,121,121,121,121,121,121,122,121,120,122,121,122,122,121,120,120,120,121,121,122,121,120,121,120,122,121,121,122,120,121,121,121,121,122,121,121,121,121,121,120,120,122,120,121,121,121,121,120,118,122,121,121,121,121,121,120,125,120,121,122,121,120,121,120,119,124,121,122,120,121,121,120,120,120,121,121,121,121,121,120,120,123,121,121,121,121,121,120
121,121,121,122,122,121,121,121,120,122,121,122,121,122,121,120,120,122,121,122,122,121,121,120,120,124,122,122,121,121,121,120,108,121,121,121,121,121,121,118,133,113,118,121,120,120,121,121,118,124,122,121,121,121,121,121,119,124,122,122,121,121,121,121,121,123,121,121,121,121,121,120,119,121,122,122,122,121,122,121,120,121,120,122,121,120,121,120,123,121,120,122,121,121,122,123,123,121,122,121,120,120,121,121,121,121,121,122,121,121,121,121,120,121,120,121,121,121,122,121,121,122,121,122,121,121,121,120
121,122,122,122,121,121,121,121,119,121,120,121,121,121,121,120,122,120,121,122,121,121,121,121,121,123,121,122,121,121,121,120,117,120,122,122,122,121,121,119,125,122,121,121,120,121,121,122,119,122,121,122,121,121,121,119,121,122,121,122,122,121,120,120,121,123,122,122,121,121,122,124,119,122,121,121,120,121,121,119,120,122,121,122,122,122,122,120,122,120,121,121,121,121,121,121,122,120,120,121,121,121,122,118,120,123,120,121,121,121,122,125,118,121,122,122,122,121,120,116,121,122,120,121,121,121,122,120
121,120,121,122,122,122,122,120,121,121,121,122,121,121,121,121,121,123,122,122,120,121,121,120,120,122,121,121,121,121,122,120,120,121,121,121,121,121,121,121,120,120,120,122,120,124,120,119,119,121,121,122,122,120,120,120,123,123,121,122,121,122,122,121,120,122,121,122,121,120,121,120,121,121,121,121,121,121,121,120,122,122,121,122,121,120,120,119,116,120,121,123,122,122,122,120,123,122,121,122,122,121,122,121,120,123,121,121,121,121,122,122,122,121,120,121,120,121,121,120,119,121,121,122,121,121,122,120
123,122,121,122,122,121,121,124,124,123,123,122,121,121,121,118,115,119,119,121,121,121,120,119,124,121,122,121,121,122,123,122,119,122,120,122,121,121,121,120,122,122,121,122,120,121,122,121,120,122,121,121,121,121,121,120,120,122,122,122,120,121,121,120,121,121,120,122,121,122,122,120,121,122,120,121,121,121,121,120,119,121,121,122,121,121,121,119,121,120,121,121,121,121,121,121,120,122,121,121,121,121,121,119,121,123,122,122,122,122,121,121,119,121,120,121,121,121,121,118,120,121,121,121,120,120,120,120
121,120,121,122,121,122,122,125,120,124,123,122,122,122,120,117,119,121,120,121,120,121,121,119,126,120,119,121,121,120,121,122,120,122,121,122,121,122,123,120,121,121,120,122,121,121,121,120,119,122,123,123,122,121,122,122,121,123,122,122,120,121,121,121,124,119,119,121,121,122,123,122,124,122,122,122,121,121,120,119,115,122,121,123,122,121,121,120,132,122,122,122,122,122,121,119,118,121,121,122,121,120,120,119,121,122,121,121,120,121,121,120,121,121,121,122,121,121,121,121,120,122,121,122,121,121,121,120
121,122,121,122,120,121,121,120,121,123,121,122,121,121,121,120,119,121,121,122,121,120,121,121,117,121,122,122,121,121,121,121,124,122,120,121,120,121,121,120,120,121,120,121,121,122,122,122,120,120,120,122,121,121,121,120,121,122,121,121,121,121,121,120,121,121,122,122,122,121,120,121,121,120,120,122,121,120,121,121,119,122,121,121,120,120,121,120,122,123,123,123,122,123,122,121,123,121,121,122,121,121,122,123,120,121,120,122,121,121,121,122,117,120,121,122,121,121,121,119,117,120,121,122,121,121,121,119
116,123,121,123,122,121,122,120,117,120,121,122,122,122,121,120,122,122,121,123,121,121,121,121,120,123,121,121,121,121,121,120,121,121,121,122,121,121,122,121,120,121,121,122,121,121,121,120,121,122,121,121,121,121,121,120,120,121,121,122,122,120,121,120,120,122,122,121,121,121,121,121,121,122,121,122,120,121,121,121,120,122,121,122,122,121,121,120,121,122,120,121,121,121,121,120,123,122,121,121,121,121,122,122,115,122,121,122,122,122,122,118,126,121,121,122,121,121,120,121,121,122,121,122,121,121,122,123
114,121,121,122,121,121,121,119,131,122,121,121,121,122,122,119,119,121,121,121,121,121,121,121,118,120,120,121,121,121,122,120,122,122,121,121,120,121,121,121,121,121,121,121,121,121,121,120,120,122,121,122,122,121,121,120,121,121,120,121,121,121,122,121,120,121,119,121,121,121,121,120,121,122,121,121,121,121,122,121,121,122,121,122,121,121,122,121,121,122,122,122,121,121,122,121,120,121,120,122,121,121,121,120,121,122,121,122,121,122,122,120,120,121,121,121,120,121,121,120,117,121,122,123,121,120,120,118
122,121,121,121,121,122,122,120,117,121,121,122,121,121,122,122,119,119,120,121,121,120,119,115,115,121,120,122,121,121,120,119,132,122,121,122,121,121,122,113,114,122,120,121,123,120,121,124,109,121,121,121,120,121,121,118,117,122,121,122,122,121,122,115,116,121,121,122,120,115,120,117,133,120,119,121,120,131,121,128,94,122,122,122,122,122,123,108,120,122,121,122,126,135,122,127,119,122,122,123,119,115,121,128,125,120,121,120,112,132,119,122,118,121,121,123,131,112,120,115,117,120,120,119,116,112,120,117
132,123,121,126,126,109,122,124,116,120,119,121,119,120,121,123,118,121,121,122,120,122,121,106,121,121,121,122,121,122,122,123,122,121,120,121,121,121,122,123,114,120,119,122,122,122,122,122,153,120,120,121,119,119,120,116,98,121,121,120,120,114,120,119,137,119,118,121,122,119,123,118,110,120,121,119,120,122,115,86,73,115,119,120,107,94,112,94,242,129,124,127,152,113,124,144,85,121,121,122,115,120,118,88,110,121,122,121,120,122,124,131,125,121,121,123,118,114,123,119,119,120,121,123,117,114,117,111
120,122,121,120,102,125,123,117,123,121,121,126,145,143,125,127,123,123,122,123,115,125,122,123,118,120,120,121,119,120,120,122,120,122,121,122,120,120,121,121,119,121,123,122,121,121,121,118,122,122,121,123,121,120,120,120,124,122,121,121,121,121,119,120,108,121,121,122,120,120,120,120,138,122,121,123,122,123,123,125,123,118,120,122,121,119,120,118,84,120,120,121,121,118,118,93,146,125,122,122,124,115,122,166,134,125,123,123,121,125,131,133,134,120,121,121,121,121,117,104,121,121,122,123,118,124,118,99
103,121,121,122,125,112,118,115,129,120,120,121,123,135,122,143,115,122,121,122,130,135,117,113,128,119,118,119,116,119,121,120,89,122,122,123,120,113,125,121,144,121,122,123,126,141,122,121,118,120,120,121,114,128,121,119,122,118,119,118,124,127,118,117,112,121,121,123,117,121,121,119,124,120,120,120,120,130,120,114,103,126,123,124,124,119,121,125,131,118,120,120,125,118,120,120,102,120,120,121,119,129,120,96,113,123,122,122,122,117,122,128,116,118,120,122,119,119,118,119,114,120,120,121,121,127,113,83
124,125,123,124,120,118,124,147,106,120,121,123,126,107,128,99,119,117,118,120,122,104,112,107,135,124,122,119,108,126,122,107,119,121,121,125,132,157,121,116,125,121,121,121,122,136,115,118,115,122,122,126,132,96,124,117,101,117,118,122,128,125,118,117,151,123,122,122,117,106,122,115,90,121,122,120,110,117,119,111,95,122,122,124,134,137,119,127,167,122,121,121,119,115,122,121,133,122,121,123,119,111,121,124,128,118,118,113,97,137,119,138,132,121,120,126,130,91,118,124,121,127,124,124,129,137,129,154
77,120,120,120,118,125,124,95,144,122,120,118,103,114,123,133,125,120,120,119,119,80,118,110,124,119,121,124,132,119,120,140,107,123,122,122,118,121,121,102,104,120,119,119,121,149,125,128,121,120,120,119,120,129,113,105,124,122,121,127,151,178,129,178,107,119,121,120,136,125,130,97,155,128,123,123,111,116,122,139,86,117,119,117,97,117,115,92,144,128,126,126,124,67,123,144,108,119,117,116,113,109,121,109,123,124,120,119,115,116,125,138,126,121,121,122,121,135,125,106,88,123,122,123,115,87,115,94
125,122,121,123,132,123,120,142,114,121,120,124,124,115,116,101,134,120,121,119,118,126,130,134,120,122,121,122,112,113,120,120,109,121,120,122,119,143,118,93,127,127,125,124,131,189,127,168,147,121,120,120,120,106,122,143,100,119,121,122,117,124,115,93,128,125,125,115,95,101,125,149,109,120,120,140,164,79,123,112,114,119,119,122,111,105,117,120,140,124,123,122,123,125,127,134,76,121,124,124,116,107,118,116,79,117,120,119,114,119,116,120,121,124,122,124,110,107,126,127,108,119,119,119,124,129,118,101
100,121,122,127,129,142,126,150,138,122,120,118,120,153,118,101,153,122,121,121,123,108,125,169,114,119,120,118,119,114,114,87,121,121,122,125,130,120,122,116,109,120,120,122,152,146,125,108,90,119,120,121,115,92,111,98,121,121,121,120,124,109,131,132,128,120,119,121,107,105,119,112,111,121,120,118,116,100,123,128,115,119,118,116,119,124,118,99,143,125,123,117,121,127,126,156,149,119,114,121,119,139,127,163,100,120,120,122,124,116,117,94,112,123,124,129,132,137,128,156,127,119,120,122,123,132,114,126
86,123,123,123,121,105,112,83,149,120,120,121,120,120,124,125,130,121,121,122,119,104,120,130,122,120,122,127,162,148,125,136,101,117,118,119,112,106,114,101,142,120,120,120,115,108,117,109,100,128,130,143,148,104,138,124,124,118,118,113,108,116,115,117,122,122,124,127,118,112,114,117,135,121,122,139,125,124,123,135,132,122,119,98,111,105,122,139,127,122,123,136,154,117,122,137,99,121,122,125,126,123,122,93,114,120,121,121,113,115,123,111,115,117,117,118,116,117,122,143,150,130,127,126,124,127,133,149
103,121,124,124,123,125,130,158,140,120,119,120,119,117,121,146,118,124,124,124,120,114,119,104,110,120,119,119,112,101,123,121,108,122,123,126,123,120,115,92,172,124,123,124,128,121,126,161,99,120,120,121,127,136,121,110,125,121,122,127,100,83,129,107,128,124,122,125,140,126,128,136,127,123,121,118,113,116,117,179,119,121,121,122,121,128,121,110,100,125,123,125,119,154,127,129,109,119,119,121,131,102,105,81,156,124,121,116,119,121,129,155,128,125,122,125,121,121,125,160,102,121,122,123,120,120,120,106
126,117,118,117,110,108,112,97,134,120,120,121,128,123,121,144,112,123,120,119,112,119,124,117,115,122,122,128,124,121,119,97,106,121,120,118,114,105,123,129,120,121,121,121,122,98,116,112,83,122,123,125,130,135,120,143,136,122,121,126,123,133,120,139,114,121,121,121,122,143,118,114,101,123,121,124,119,122,125,115,135,123,122,122,121,111,120,126,106,119,121,122,121,125,127,107,120,125,122,124,129,145,125,145,112,119,121,122,120,119,121,115,102,121,119,118,117,109,109,94,121,121,120,125,132,136,118,85
134,122,121,122,123,135,126,172,128,124,122,122,122,122,123,92,127,119,120,121,120,116,111,113,107,121,122,124,123,149,128,130,105,118,117,117,110,103,110,96,167,121,120,123,123,121,122,117,125,120,121,126,116,126,119,116,105,119,118,116,107,134,122,131,107,122,122,120,121,87,118,106,125,117,118,121,127,146,124,127,146,123,123,127,125,119,122,145,73,121,122,124,117,121,123,113,151,118,119,119,118,120,116,100,115,123,120,121,121,124,125,139,137,121,120,121,121,121,120,157,111,126,122,123,130,121,129,132
92,121,120,121,119,122,123,102,86,116,118,120,119,120,117,109,153,123,120,121,119,120,126,124,111,123,122,123,135,116,123,110,110,120,121,119,109,103,112,127,102,123,123,119,121,123,115,83,142,123,123,125,121,124,125,144,91,122,122,134,112,120,119,108,93,117,116,93,121,121,117,100,127,123,123,138,145,106,128,143,102,117,117,113,126,131,120,115,179,126,124,126,129,162,140,155,79,119,121,128,122,126,121,83,139,123,122,118,123,132,135,157,128,125,123,124,129,122,132,152,104,121,121,123,119,121,121,139
106,120,121,121,122,117,114,92,115,120,119,121,120,125,120,124,103,118,121,123,122,121,118,113,126,124,121,120,123,123,127,131,149,122,121,120,111,75,117,129,120,121,121,121,116,111,118,104,109,122,122,123,118,144,125,97,126,121,121,128,122,123,127,124,125,123,120,113,110,108,121,129,127,124,124,124,127,115,124,113,103,120,120,122,117,105,117,128,86,124,124,127,120,127,122,126,158,123,121,122,119,125,134,102,135,121,120,121,119,132,123,140,119,123,121,115,118,116,114,94,119,124,121,123,123,129,127,133
125,120,121,122,115,114,125,104,116,120,120,122,133,132,118,124,119,120,121,121,116,148,120,107,121,123,123,137,136,120,123,136,124,121,120,115,114,118,115,103,121,121,119,105,119,141,131,151,103,120,120,127,114,77,116,118,126,122,122,133,118,124,117,103,132,121,120,119,119,119,116,111,95,121,121,123,121,109,118,125,157,122,122,121,123,119,118,121,132,117,118,121,118,111,117,103,103,125,123,123,120,116,125,119,99,124,122,123,123,126,134,172,164,124,122,121,118,117,117,104,110,120,120,121,125,125,120,116
107,123,122,122,119,133,125,145,123,119,120,121,121,125,117,115,135,122,119,120,120,120,118,117,137,119,120,119,107,116,122,117,115,121,121,118,116,92,121,126,124,121,121,122,113,93,114,116,148,122,123,131,148,139,116,119,105,124,121,116,114,119,124,114,123,119,119,124,116,115,118,112,111,121,121,125,126,127,119,116,87,122,122,121,109,112,123,119,150,126,121,120,109,72,123,130,79,121,120,125,133,123,118,73,111,118,119,120,119,126,122,148,105,121,121,121,119,122,118,98,121,122,122,123,122,112,119,108
114,121,121,118,108,128,118,80,161,123,121,125,128,134,128,180,102,121,121,122,120,122,123,121,120,119,120,122,118,132,119,125,131,124,123,122,126,132,117,113,115,123,120,120,122,127,119,115,126,122,122,130,144,107,122,121,110,120,120,127,117,109,119,117,107,121,119,120,118,116,119,118,136,124,122,122,118,124,120,122,111,123,123,123,116,98,121,110,98,119,119,119,123,96,117,107,179,125,122,131,130,146,123,114,82,118,120,119,116,113,114,87,144,123,122,120,120,115,125,136,141,121,120,119,113,107,119,139
96,120,121,124,121,124,119,107,125,120,122,125,124,107,120,115,107,121,121,120,126,141,124,115,107,123,121,122,118,116,114,106,143,126,124,122,120,125,127,129,112,120,119,119,117,113,117,118,118,121,122,123,138,110,121,127,125,120,120,119,124,105,119,111,123,123,123,128,116,106,122,119,112,121,121,121,129,132,121,119,125,120,121,123,118,127,120,108,122,122,121,126,128,107,121,116,118,122,120,115,115,109,116,117,129,122,121,119,106,117,123,125,110,124,123,126,117,122,123,144,116,120,121,121,120,119,116,110
121,123,123,123,117,103,124,95,133,118,119,121,124,123,118,131,145,124,122,122,122,125,124,122,87,121,121,121,119,128,129,120,132,119,118,118,117,115,118,111,118,122,122,122,122,157,119,126,95,119,118,119,119,129,120,103,108,122,122,124,114,111,119,119,123,122,121,117,99,130,122,118,127,123,122,126,123,119,120,133,114,120,120,123,123,128,119,100,152,126,122,121,119,123,126,152,119,121,123,123,119,122,123,125,108,120,120,120,125,116,118,118,126,120,121,125,144,139,120,106,120,121,119,117,118,126,116,102
110,121,120,122,117,120,121,139,110,125,124,125,132,145,132,136,109,118,118,119,111,101,115,96,141,122,120,118,130,125,120,124,116,121,122,121,116,120,123,113,114,123,122,122,123,123,127,135,128,120,119,121,121,121,119,115,123,120,122,125,123,121,121,121,120,121,120,117,130,116,121,119,132,122,120,120,113,108,121,116,114,124,124,123,113,112,124,116,109,119,118,120,118,111,117,113,126,121,121,118,117,130,119,111,109,122,121,121,120,113,122,109,136,122,119,119,117,149,117,122,93,124,124,122,118,117,127,105
122,119,119,121,119,121,121,118,121,119,119,119,121,117,114,94,128,124,122,128,124,136,122,112,154,119,119,117,124,110,121,118,116,123,123,125,121,124,130,134,103,121,120,122,120,120,119,106,122,122,122,123,124,131,123,115,124,121,120,122,129,120,121,120,114,121,121,123,121,121,118,120,162,123,122,118,124,133,120,124,104,122,121,124,120,125,122,128,111,120,119,118,106,112,117,114,116,119,118,120,123,116,118,120,116,120,120,119,122,124,124,121,129,124,123,125,127,154,127,125,111,120,120,119,122,126,123,107
132,125,120,122,117,118,125,138,88,115,119,120,112,97,114,93,151,125,121,120,118,109,127,157,114,121,119,119,121,119,120,100,119,119,120,123,127,131,122,109,89,119,120,122,116,116,113,62,129,125,122,119,111,124,130,155,113,119,119,121,133,128,119,107,120,119,118,114,117,117,117,105,130,121,120,125,126,143,125,118,119,121,121,125,127,117,120,119,125,125,124,117,119,137,129,137,123,121,121,120,122,122,119,117,113,120,120,123,121,129,120,116,123,122,122,122,118,115,120,118,111,120,120,122,122,125,121,121
117,120,120,121,121,126,120,114,110,121,121,121,122,123,124,103,133,120,120,120,122,125,128,198,104,120,120,125,127,126,116,92,100,121,121,122,120,136,118,101,139,124,121,122,122,144,127,146,108,120,120,121,115,103,120,106,125,121,121,117,116,125,118,108,81,124,122,122,132,112,121,101,137,119,119,117,111,108,121,128,101,122,122,125,127,121,124,135,156,124,122,123,131,137,124,131,138,121,119,119,115,115,119,114,111,120,121,127,121,127,121,116,118,121,119,119,120,118,123,138,122,124,122,122,117,117,122,127
106,120,122,126,129,137,117,107,127,121,122,121,115,89,120,121,117,121,120,122,121,123,122,111,135,121,121,122,118,120,121,137,143,121,122,121,110,111,121,142,134,121,120,120,117,121,120,106,152,121,121,121,120,121,126,110,77,122,122,123,121,123,120,114,126,122,121,120,126,122,121,139,130,119,120,124,119,122,121,126,102,123,121,121,118,122,120,122,139,123,122,125,130,130,121,112,101,120,120,119,115,98,121,119,135,123,121,117,116,124,119,124,129,119,121,126,124,118,122,122,109,121,119,127,130,124,121,118
133,123,121,115,120,125,123,128,117,122,122,123,121,117,122,119,114,121,121,123,126,120,119,111,124,121,120,121,119,116,121,118,114,123,122,123,123,121,128,127,101,121,121,122,117,116,121,131,147,124,121,122,125,136,120,136,81,121,122,122,116,121,119,104,131,123,123,122,119,119,128,132,109,119,119,123,124,120,117,114,118,119,120,117,122,120,118,99,120,122,121,123,121,120,122,153,139,120,121,123,120,117,121,102,133,123,121,119,120,114,120,111,91,117,120,131,127,135,119,115,126,124,123,122,122,115,126,136
128,124,122,123,120,122,121,120,118,119,119,118,118,119,120,116,124,123,122,122,114,117,123,132,115,122,121,122,119,118,119,112,116,122,121,123,122,103,121,114,119,123,122,124,128,146,122,108,119,123,122,119,118,114,128,155,119,121,122,125,131,118,117,98,129,121,120,120,117,123,125,125,108,120,120,122,123,119,119,110,135,122,122,123,129,128,124,155,127,121,121,127,129,119,119,122,126,123,122,120,119,120,120,118,113,121,121,122,122,119,122,119,122,119,119,121,118,122,120,116,122,119,119,122,123,121,122,122
95,121,121,120,119,122,124,125,145,125,123,123,118,111,120,118,109,119,119,120,118,118,120,106,111,120,121,121,123,119,124,147,126,120,121,122,120,123,119,109,121,123,122,124,124,133,120,114,111,123,121,122,123,119,123,132,126,121,119,117,121,119,124,125,101,121,122,123,118,131,121,142,119,121,121,123,122,119,117,98,127,121,121,119,114,102,124,128,95,119,119,122,114,119,118,108,147,124,122,121,124,116,120,141,154,121,120,121,117,146,128,151,98,122,121,122,129,115,115,108,125,121,121,123,120,123,125,121
118,121,121,121,121,112,119,118,112,122,121,122,122,122,120,116,149,122,122,123,120,107,121,114,121,122,121,122,122,115,120,111,112,121,120,121,118,116,120,127,137,121,121,123,127,125,123,126,120,122,122,122,120,123,121,118,125,123,122,122,116,119,120,117,103,120,120,121,118,127,125,112,115,122,121,121,125,115,114,116,125,121,122,121,118,120,127,131,101,121,120,119,116,126,122,123,126,123,123,126,125,116,126,151,127,123,123,121,123,117,117,108,121,121,120,121,119,121,120,119,113,121,121,121,123,111,121,111
126,121,122,121,117,120,119,120,131,121,120,120,126,139,122,116,101,120,119,125,134,119,118,111,127,123,122,121,120,110,119,135,109,121,120,122,122,120,128,121,133,123,122,124,121,120,120,109,128,121,120,121,121,120,121,122,111,124,123,124,130,134,125,125,125,120,120,120,119,123,118,118,134,122,121,121,118,107,122,123,124,122,121,121,120,119,118,116,121,123,122,121,121,121,123,112,128,121,121,123,122,120,120,112,118,121,120,122,123,131,123,134,124,122,121,121,114,111,120,125,137,121,121,123,125,122,121,130
130,121,121,121,117,115,120,117,118,123,122,120,115,125,123,121,110,120,120,122,118,125,117,113,162,126,124,124,117,128,125,142,113,122,121,124,124,123,125,124,112,121,121,122,119,122,119,114,119,120,120,125,127,122,117,115,100,121,121,121,118,112,120,103,134,124,121,123,117,127,125,159,119,120,121,121,117,116,117,112,123,122,121,118,128,126,128,117,107,121,121,123,125,115,120,99,143,123,121,121,119,120,124,111,138,123,122,122,117,108,122,134,105,122,121,123,121,113,121,111,118,121,120,121,120,120,121,124
134,123,122,122,121,121,122,123,113,122,122,122,121,120,119,117,108,122,122,124,122,121,123,121,135,122,120,121,125,132,122,120,130,122,120,121,122,126,122,117,126,125,122,122,119,118,122,130,117,120,121,121,120,118,118,123,117,120,120,119,134,135,127,129,108,121,120,121,110,105,124,108,123,121,121,121,122,118,121,138,106,123,121,122,118,128,119,94,121,121,120,121,117,128,123,132,124,121,120,120,124,129,120,116,126,120,121,125,120,129,121,130,110,124,121,120,121,125,123,126,125,123,123,123,122,114,122,125
118,121,120,122,121,128,120,117,121,123,121,119,117,119,121,122,119,117,118,117,118,117,121,118,143,120,120,127,118,119,120,112,114,122,121,121,120,121,124,125,102,122,121,122,120,116,119,110,116,120,120,122,124,136,120,110,116,122,122,122,121,120,119,119,121,124,122,122,122,128,126,158,132,121,122,124,121,117,125,112,123,120,120,122,118,112,120,121,118,121,121,120,114,102,120,131,117,122,122,121,121,111,122,109,110,122,121,122,120,119,120,110,113,121,120,121,121,122,121,115,131,121,121,120,122,129,121,122
134,123,121,123,123,120,122,119,116,121,122,123,120,125,119,121,104,120,120,121,116,114,119,113,139,122,120,122,123,124,121,120,118,120,122,123,121,119,123,122,124,119,119,120,127,138,122,112,113,122,121,122,123,121,121,122,129,122,121,122,119,116,123,123,122,124,123,123,122,119,125,122,117,121,121,122,118,104,117,122,123,122,122,122,118,119,122,123,100,120,121,120,116,115,121,121,137,123,122,125,120,118,121,119,132,122,121,121,120,121,124,133,96,122,121,122,120,120,119,109,131,122,122,118,117,99,123,135
129,122,120,119,119,114,122,120,121,122,121,123,119,118,123,122,122,120,120,120,122,122,122,111,111,122,122,124,128,122,120,128,117,121,121,121,118,121,121,110,132,123,121,121,117,125,123,130,117,118,119,119,125,138,122,123,128,122,120,124,120,140,122,116,122,122,122,121,119,114,122,123,124,121,122,122,120,128,120,102,124,122,122,122,120,119,123,123,128,121,121,124,134,121,122,104,111,123,122,122,120,127,121,111,133,122,122,122,125,121,119,141,124,122,120,120,123,123,120,108,120,121,121,119,119,119,120,117
106,121,121,121,119,127,117,108,148,123,122,123,121,125,125,144,113,119,119,120,124,122,120,108,145,123,122,123,122,137,125,122,121,122,120,122,120,125,119,117,111,122,123,121,121,115,123,120,116,121,121,124,113,118,121,121,117,121,120,120,125,114,119,114,129,123,122,122,117,116,121,132,119,120,119,121,120,127,120,107,120,123,122,122,120,117,119,129,127,122,121,121,120,125,125,123,114,121,121,123,118,140,121,96,120,122,121,123,137,130,126,138,121,120,120,121,118,120,119,119,124,121,120,121,120,120,121,121
135,121,121,122,119,121,119,122,118,121,121,123,124,113,120,117,127,122,122,123,123,132,121,124,119,121,121,124,123,121,124,121,128,122,121,122,118,118,122,117,114,122,123,122,120,130,121,112,126,122,121,121,118,114,117,135,129,123,120,120,122,122,125,127,127,122,122,122,120,122,119,117,112,121,123,121,121,121,120,117,109,122,120,122,120,123,120,121,151,123,121,120,114,119,125,137,117,120,121,121,118,111,119,117,113,121,120,120,117,122,118,114,118,119,120,122,124,119,122,116,129,121,121,120,118,109,122,116
95,121,121,123,127,106,117,114,152,122,121,122,125,136,125,130,103,122,120,121,114,115,124,123,117,119,120,119,117,116,120,106,117,122,121,128,127,134,121,114,119,120,120,119,118,116,119,131,105,121,121,122,126,124,123,105,133,121,120,122,119,119,121,135,115,119,120,120,119,119,116,109,131,124,123,124,124,137,126,124,109,122,122,123,126,122,120,118,125,122,120,121,120,120,119,115,103,120,120,121,121,121,123,132,128,123,122,122,119,123,123,120,118,120,120,123,129,117,121,114,122,120,121,121,122,120,118,124
119,122,122,122,120,121,124,123,111,122,120,120,115,121,123,131,127,120,121,123,118,121,117,120,110,121,121,119,118,119,120,111,135,121,121,124,123,142,127,124,111,121,121,121,120,119,120,116,115,120,120,119,110,122,122,113,132,121,121,124,122,121,124,116,110,121,122,124,129,124,122,120,112,124,122,123,120,103,122,123,112,120,121,121,121,129,121,118,135,122,121,122,116,116,122,114,102,122,122,123,119,116,120,120,145,123,121,121,120,118,119,118,99,119,119,123,122,122,123,119,117,123,122,121,117,121,121,122
155,123,122,121,117,115,120,117,93,121,121,122,121,124,118,112,122,120,121,121,119,121,122,121,116,123,120,121,120,121,120,107,111,122,122,122,121,124,122,115,139,121,121,122,115,112,121,119,113,121,120,121,124,133,119,123,98,122,122,122,123,113,126,125,154,124,123,124,122,126,123,136,105,121,122,121,126,133,120,117,133,121,121,123,120,130,125,119,99,120,120,122,120,110,117,116,135,122,121,121,120,118,121,126,115,120,121,122,122,123,121,113,122,122,121,122,120,118,120,113,107,122,122,123,127,116,123,119
170,123,122,123,121,136,123,136,100,122,121,121,120,117,120,116,121,120,121,125,124,124,122,119,127,122,119,119,117,118,120,129,108,124,124,124,126,124,120,87,120,122,122,124,130,112,131,135,118,121,121,122,129,126,119,115,109,121,121,121,120,123,119,123,123,120,121,121,115,118,116,108,149,123,121,122,125,118,120,132,104,121,121,121,130,121,117,112,123,120,120,121,122,121,121,102,120,123,123,122,121,95,121,122,115,120,120,121,119,119,119,119,117,122,122,123,122,124,123,134,111,119,121,121,119,125,121,114
146,124,122,125,122,112,123,129,112,121,121,120,118,117,122,106,128,123,121,122,117,122,122,137,131,122,121,122,128,126,124,132,114,120,119,120,120,120,119,109,110,122,121,122,118,114,120,115,124,124,122,125,131,127,123,133,147,121,121,123,123,118,120,98,121,125,122,122,122,124,125,157,112,121,120,121,120,121,118,102,113,120,120,121,120,117,118,117,122,121,121,122,124,133,119,112,118,124,123,125,118,99,129,145,120,122,121,122,132,138,123,127,119,120,120,119,122,132,123,109,125,120,120,125,123,123,121,126
107,122,121,116,121,130,123,131,135,122,120,120,120,117,119,121,117,120,123,123,121,123,122,116,108,123,120,120,119,116,123,126,133,122,121,121,121,119,121,115,117,123,122,123,122,120,119,117,115,121,120,121,121,121,120,116,134,123,122,122,121,121,125,126,110,121,121,123,121,121,119,119,136,119,120,122,119,118,122,116,116,121,121,122,117,115,119,118,119,119,119,120,132,127,116,104,156,122,122,123,127,115,130,149,126,122,121,121,129,136,121,115,116,119,118,119,117,118,117,117,119,121,121,122,122,138,123,112
124,120,121,121,115,124,120,127,120,122,121,120,132,118,120,115,120,122,122,128,118,116,124,122,119,121,120,117,119,122,120,114,124,123,122,123,116,107,120,128,111,121,120,120,122,124,122,134,119,120,120,120,118,119,119,110,110,122,120,120,117,107,118,129,126,121,122,122,120,135,126,126,119,120,120,122,126,119,119,121,129,123,121,119,119,120,121,112,121,122,122,122,122,121,125,138,138,118,119,121,119,124,120,109,117,119,119,120,115,104,121,117,96,123,122,124,123,119,118,99,160,122,122,121,119,120,125,140
115,121,121,123,122,135,126,128,114,120,120,123,120,122,117,110,131,126,124,122,127,135,128,124,146,122,121,125,130,129,123,136,135,122,123,129,149,134,125,131,109,119,119,120,115,108,117,110,114,120,120,120,117,121,116,103,124,121,122,124,126,115,121,123,143,125,123,124,126,143,120,119,121,121,122,124,121,123,121,121,121,122,121,122,121,120,124,125,123,120,119,119,117,121,118,102,117,122,122,125,136,116,120,120,111,121,121,121,123,118,120,110,125,124,124,124,119,123,124,131,144,120,119,120,119,100,115,130
85,122,123,123,123,128,128,137,134,121,121,123,122,123,129,121,109,120,121,120,118,122,117,113,129,122,121,120,113,105,124,129,114,122,123,124,131,134,122,119,121,121,121,124,127,119,123,131,116,122,120,118,119,124,122,126,130,121,122,122,120,122,122,122,119,119,119,122,121,118,116,109,120,121,120,122,118,122,121,120,123,123,121,121,119,120,126,122,105,122,122,125,126,121,120,117,116,121,120,120,121,136,124,120,135,124,121,122,117,106,121,125,91,120,122,124,120,117,121,113,130,117,119,121,126,134,123,120
127,120,121,122,120,121,119,117,119,123,122,122,119,109,130,122,134,123,121,120,114,110,119,142,115,120,120,125,134,139,122,110,137,124,123,124,125,106,125,140,116,121,120,122,118,117,115,91,122,121,121,120,118,127,123,131,103,120,121,124,115,117,118,101,142,121,121,124,143,131,127,120,119,124,122,122,121,147,126,134,116,120,120,121,124,123,123,115,91,120,119,120,119,121,119,106,133,122,120,122,122,123,117,111,127,123,122,123,122,122,124,129,90,119,119,121,121,121,121,114,117,121,120,121,121,121,122,117
118,121,120,121,120,121,121,114,117,118,119,120,120,120,120,117,115,123,121,120,122,141,124,126,124,122,121,123,116,104,122,135,117,120,121,121,129,120,117,98,113,121,120,121,119,132,126,119,127,124,121,124,131,107,117,110,115,119,119,119,115,115,125,126,129,121,121,126,128,115,121,132,112,123,121,121,118,125,122,128,144,122,122,123,120,125,123,120,110,122,122,121,120,116,118,117,142,120,119,120,121,128,131,148,116,120,120,119,111,121,120,119,111,119,119,121,123,130,120,115,115,122,121,123,113,126,121,119
129,121,120,119,118,110,115,117,116,121,120,119,117,121,128,128,129,121,122,122,121,123,122,122,111,123,123,124,119,121,125,132,123,121,120,119,129,123,119,121,99,119,120,127,133,135,119,85,136,124,122,123,130,148,136,170,121,122,121,122,121,129,121,113,101,121,121,121,118,110,121,105,119,120,121,122,124,132,118,122,158,122,119,118,128,129,124,114,103,124,125,125,127,120,125,135,133,121,122,122,121,118,122,121,132,121,120,121,112,117,118,117,101,121,121,121,117,120,121,119,116,122,120,123,129,108,120,115
132,120,121,121,124,130,123,121,117,121,121,121,119,118,122,121,107,122,121,122,121,123,122,118,98,121,120,121,121,120,120,113,136,123,123,123,116,110,121,119,111,122,121,121,119,122,120,107,114,120,121,121,118,120,120,116,127,121,121,121,119,121,123,125,121,121,121,122,129,122,122,119,104,121,120,121,113,129,121,104,139,123,121,118,138,136,122,122,100,120,120,121,115,112,120,126,119,121,121,120,123,146,122,120,131,122,121,123,118,114,119,110,125,124,123,123,130,137,123,133,124,122,122,120,123,120,120,113
98,120,120,123,117,121,120,116,127,120,120,121,120,122,123,131,118,122,121,123,121,123,124,118,117,122,120,119,117,125,121,120,137,123,122,122,119,129,124,119,121,121,121,126,132,118,123,110,122,124,122,122,125,127,123,145,123,120,121,121,118,124,121,110,124,123,120,121,119,107,119,110,99,119,119,120,117,106,117,124,149,120,120,123,126,127,126,132,117,123,122,123,124,114,119,115,118,121,121,120,122,127,117,119,120,122,120,125,118,114,123,126,122,121,120,120,121,126,120,119,121,119,120,122,118,123,122,122
117,120,119,121,130,124,120,116,123,125,123,120,118,124,124,132,125,122,121,123,121,122,120,117,112,117,115,119,126,111,121,119,136,122,122,121,116,113,126,125,125,121,123,123,120,117,117,109,132,123,120,125,127,132,124,128,119,116,118,120,118,118,118,115,143,124,120,121,122,143,126,124,93,122,122,122,121,116,122,132,122,120,121,122,120,144,119,94,125,122,121,120,123,117,135,151,124,122,122,126,120,107,115,103,128,125,123,123,124,113,123,138,126,120,120,120,111,106,116,112,144,119,119,120,126,122,119,120
