0.9524036173250832
1.0524658359964603
1.05028060556902
1.0417293927484241
0.4457438830360312
0.13236667727592416
0.43504182475971703
-0.2407997759558091
-0.6825570611159183
-0.5740132552815763
-0.08463531118313228
0.2973873124037759
0.5891502782145155
0.4338487031027753
0.3021015690747304
0.5641278023653622
0.39520956795700524
0.25718269239539926
0.14961145286381455
0.06981869959256982
0.013904148314539561
1.0838337771312396
0.805209043821185
0.5653548374190774
0.3690255248543238
0.21576623376441684
0.10187065030678137
-0.346816019412063
-0.6819745483921381
-0.18145924431559557
0.5970819748420914
0.8313682160845526
0.6239885043134095
1.1808606125113925
1.2288200400045337
1.2409165189337836
1.2294111089265483
0.8352333180183493
0.5200198326299654
0.6483892595531264
1.1260542543126513
1.497050284308721
1.033854574944472
0.2906013097059553
0.4562028599858936
-0.13341565012795586
-0.20581828891252973
-0.23517372339622664
0.13366586489239463
0.8040404404250253
0.9535960810575447
1.051699642644817
0.740839669166573
0.4857259028793166
-1.9260421227837268
-2.666262829913871
-4.6348366379077355
-5.328176348339854
-0.20952154742147755
-0.2223936555744055
-1.3983637686154637
-2.7161697767966464
4.381517268750495
10.233675435750488
7.1715726279544585
8.933930989175522
9.393864191226793
4.0431821649088615
1.9999021455959034
-6.164759726634166
-3.490579036285075
2.92783817577424
6.175093437241388
7.133749220418957
7.728334682607256
8.04583462142659
3.3702578779738133
5.204280300710168
7.032399957849101
3.2607003297981834
10.994576239142397
23.257549529025397
16.635008418508626
-0.37636158299335776
-6.992183680518618
-14.306454716615338
1.927913112568092
8.69588671701386
-14.890758103781959
-20.671252250542132
-10.574964980437052
-21.051431081864905
-20.82146698946082
-16.895564777419438
-13.551379034224308
-1.2543084867475969
8.935139777477634
4.976674987987067
1.36712165415004
2.3201880538056576
7.32066678266011
8.05875536200907
7.992455586790374
1.4451664064323877
4.354582240898838
8.114639596156616
15.748959909412203
8.55854511925707
2.3347880047118945
7.459566160637831
6.370793663691438
-1.1412885490998743
-2.1125394572862994
-0.05650234777115282
8.359076190544874
6.434915213794726
4.788333447293452
3.079134522986772
1.018067819031002
2.7952634084764565
1.3018294477026355
-0.561260905538424
-1.1938534430756498
-0.8404425337914543
-0.839782844083974
-0.4039549263999712
-0.3859454822083537
0.39346210009869553
0.644474378718106
0.8311902498132719
0.5937930718137894
0.7654272888364484
0.5237340684873725
0.32953640204845513
0.5494396433942395
-0.7506781936343382
-0.2754356866424559
-0.24275480041504963
0.1658515238639044
0.4900877764572444
0.3666114839338916
0.6282162883233013
0.0855385792370692
0.02537324788292638
0.35406030025412455
0.6128882448974409
0.8070479373463093
0.5762683793583463
0.384786530684712
0.23332810330964984
0.48785746692844034
0.6892377582418308
0.47237730081980833
1.0353100406437599
1.0986605930452082
1.1308155630793424
0.7720351641758509
0.11550364151072923
-0.018920045009605185
-0.47096655327514436
-0.429697909200486
-0.0008164037770279631
-0.3879100867053704
1.162510049301858
1.2607061526839136
1.3019842260072911
0.5666768292018324
0.3466727737836667
0.18023622438644948
0.42952812283758424
0.6322365033277182
0.7894298247059897
1.2740853190020394
1.2690464230513523
0.875801858729879
0.9266404046091459
0.9645642808375359
0.9913216978873085
1.7462761364403585
1.5851315930621934
1.4369070550103085
-0.5348151324926065
-2.7922900995213955
-1.5228440877716807
3.2453459387889447
2.5269374613779947
-4.39504902377663
-2.024111495219716
-17.376914400380382
-11.408296247086959
-15.553657672652296
-23.685574473000287
-23.37123341985552
-14.18677300190904
-3.83506175847765
-11.367619314851991
-12.282948140337837
-5.992197079481755
-7.7837250876771495
-6.748397700631016
-12.671670396005545
-8.094051730008271
-8.537117304107797
-4.508828923967788
2.238308295192807
1.7431918777954114
-3.0018025891745475
3.083282592314913
5.8693841403892515
-4.36907066149328
-3.9921986118422277
-0.6464931658330388
3.4685405022183975
8.060121596140853
5.531823612901654
9.236212105821389
10.109919877823097
2.0935299674702605
6.4458599947758835
-4.874234583539927
-4.771392339660645
8.865896705691885
25.08209036550656
28.450983630864958
16.004303354768137
12.109666107565417
5.688396047697326
-10.275277652772392
-6.833048662314276
-6.878990531798017
-2.464783663581291
2.3389618009044826
-6.39608141442304
-6.145407764334123
-9.055411483861059
-3.0154014012757564
-8.860020594100991
-6.350443961575451
-2.0494199643978623
-0.5379872929943667
0.5384020443508697
0.8859314848057589
1.034939675997176
1.0467791971448273
0.9710815440080093
1.2148213374366246
0.9829426386298761
1.127140770232997
1.2080730258711687
1.24263417377407
0.8764882520304167
0.9443800049709917
0.6229740114103661
0.7392537323911393
0.4646940862444707
0.623124720049084
0.384402583078021
0.5718375094388259
0.3555012182988314
0.9280512901036225
0.6373093783262199
0.40312244557848975
0.5919331171512778
0.006182362441678246
-0.07487030497342631
0.2485951625319452
0.5125064081778141
0.7178511224067643
0.13253368865563497
0.0417153062050461
-0.01893408404226215
0.3129678255478081
0.5770903665767758
0.04006436216175069
-0.01291980515271653
-0.045342890077015495
0.3064769914252682
0.5836897520842096
0.4230897157687761
0.6567702995336228
0.46288116973376925
0.303697963531104
0.5477593133645714
0.36908519892189245
0.5956463118571313
0.40211918436616206
0.24799237405987726
0.4996719976157765
1.8043733488527027
1.6964444039278073
1.5729712153616515
1.0808090371947774
0.3155380624845806
0.4652581723657706
0.23358028857999955
0.43744597201781943
0.6108470454183663
0.7512377667667018
0.4909475312682836
0.6563006655687083
0.7879990837610262
0.5193003983830977
1.0457786675806429
1.8226558030569766
6.0935180588129585
5.651665336325415
1.84385231683504
0.2914376386464481
-1.239376077579768
-1.608318006202777
-0.6868431773244497
-1.3663648361103817
-1.108329240534839
-0.11999267406622871
-0.43365656208317205
1.5354418968079866
2.685151801858237
0.5659607136431251
0.7087282067159799
-1.0214290876066034
0.23043980837440414
1.2408179107051247
1.6497734280718719
0.461034838856049
-1.222346853098258
-2.137101639081166
-0.9397292407719327
-1.0562935663211752
-1.862781981373666
-3.199659697872473
-1.6058914017173072
-2.156648056959684
-0.7279255823012178
0.022108231930925037
-0.16405907777771161
0.020677338980871474
0.8730336262625912
1.131994945957615
1.284993086021946
1.3589387120892273
1.008415744988014
-0.3990570040490371
-0.019527275291263857
0.301081843125503
0.19033320517594368
-0.6320794788986016
0.5834630913309642
0.068113176916342
-1.4481603584473302
-1.8707891160855523
-2.147866928904277
-2.311041147067454
-4.601459148332824
-2.9992867583461393
-2.4074216002083353
-1.1845693948045384
-0.6076768072257337
-0.5638797815936809
-0.9395684495773498
-0.523630135551235
0.1492488784217112
-0.09572930671470109
0.4151361276270512
0.7841229874207163
1.7715945913610416
1.755229638357486
2.4222638353219605
1.4145306871871837
0.9551740775050138
0.5892823542026825
0.6801546031675443
0.7629368965962237
0.46534811335988624
0.9778744600782572
1.0139663239228847
1.4043282034450235
3.1728434183952174
2.670532317400323
2.2206838653665777
1.1023260475736454
0.9666231543424809
0.5149177340833173
0.55752327920191
-0.11779473413068975
0.12314448029906194
0.34492348644793613
0.5369848835198574
0.32633857095860325
0.5361116409526943
0.7054026228687669
0.46699936104472844
0.6480728498286711
0.42166319772156924
0.6139106130599504
0.3972695831348311
0.22893597559184498
0.47316078420752067
0.30051710848778124
1.2737059926056677
1.2878840269573204
1.273960916457341
0.87471714336439
0.5531682040179995
0.6749041193999453
0.7775882471277316
0.860085926814798
0.5545984623180014
0.6863605654604852
0.4257777993758557
0.5961243325935935
0.7357564777045925
0.47621741235432125
0.6432151559828635
0.4083052622537975
0.22756142783514863
0.09537441629903184
0.3730312339729345
0.5981357514420784
0.7721775450163855
0.5314679174475095
0.7059630005017828
0.4708006341345434
0.6536181135446468
0.7965551551095247
0.9029580307591865
0.9778421192133946
0.6581917422074661
-2.914081313742728
-2.7033741681177474
-2.435009833814263
-1.782882392824271
-11.921428402948193
3.17953618067072
23.5621592924157
8.406383578417895
0.08066060433384337
21.566982539504643
16.432806238338316
8.647136231703751
-6.439237334365549
-9.514624021920083
-18.42030771081169
-18.167391600113113
-16.990093742935983
-21.14228888167429
-32.47047140462738
-21.604868696220805
4.328201112664615
5.60542248143876
5.228997008872017
12.528071019567184
2.9823089713718076
3.97834428098392
15.30077806473589
15.375297257704544
16.10130551279566
4.14658193625446
-3.8444265749437116
-9.855083967211854
2.821629039267007
-1.3946891695048635
9.71797470736222
7.284476552586212
4.800699590423953
2.403074800604735
-9.414955820250317
-8.108759129838674
-4.875879555711521
-8.0286637256584
1.8320444044835487
34.65090703504876
50.83975495995371
53.33663153382365
47.29638058100332
23.855670424686515
32.08948816760905
19.74878320640117
0.5645731413413024
-0.2543496423479663
-13.019515499184486
-1.5427304799620103
8.498187906959346
3.641569153375949
18.69190181622395
38.10556707920611
18.369669742100168
8.652390758008094
5.170713315999162
1.9833802049185807
0.18226942403974228
-1.258509806920355
-1.6994119872431732
-2.1319634073773477
-1.8669570705544456
-1.4718601393005417
-1.3947140472302784
-0.8665070162808546
-0.38473888946622714
-0.33925357641731424
-0.28358259613665376
-0.22590461625676964
-0.17154240845282695
0.24509343284671595
-0.16926993384828715
-0.4968690756271681
-0.00629072251477103
0.38337320142649417
0.3096813283957088
0.6072391192842423
0.8262983474008485
0.9783949503001961
0.7074459670058741
0.8488681498528069
0.9501581322294206
0.649377796282488
0.7765808583295264
0.8746377197673156
0.9465030524697248
0.6274369470206973
0.3761529789693403
0.18762663470205376
0.05369944705338511
-0.03511732592295262
-0.08839831649705696
0.253674662949125
0.1602432042225459
0.08852647905679134
0.40490312221725155
0.2832333186857373
0.5526034174977175
0.3895221737824882
0.6243034548118466
0.43368887162446046
0.6475787018114623
0.441925718638733
0.6456671399631924
0.8024454995624926
0.5484322814589806
0.7131807175786241
0.8399779626371806
0.5640551045255886
0.7137303691529872
0.8309680416727973
0.5497259798874125
0.6971816825157201
0.4456467063791199
0.9888128332338542
0.6746926103832632
0.05409004637210102
2.1593461696023946
1.58146561188937
1.0909859432363844
2.5380862840441343
6.228076567652973
3.117247039345205
-1.2555963980097151
-2.7881345147085135
1.3096721247180607
-0.5744422076878499
1.2820886215244032
-0.1999407347137081
-1.726731891776067
6.345918045764362
15.187440436981838
11.464023816054874
12.99542470099825
9.538347142876887
3.3592535543916977
0.0304998477754288
4.613807096744885
-1.9906667037324066
1.4448737190233905
-0.13070825559998855
-1.6426060951982668
-8.972606916070538
-7.839968038141574
-6.292215162197396
-2.6824855265078495
-3.1113764875292236
-4.92749219239819
-4.843412665707801
-1.405141942318854
-3.8872003663131323
-4.016965222001026
-2.2541081346097895
1.6981677198939231
0.26977186513465545
-1.3399361124376785
-1.1722329739593924
-3.633478890468184
-2.953436198812205
10.903801239558106
6.450496943742566
8.917474415906371
7.322202115674076
5.154835350149894
0.058791651528752986
0.5460562815413161
-1.900838469804683
-3.6918413373617884
-3.451720925758827
-5.686131534579198
-2.487672836523733
0.8638655059378717
-12.017538400539072
-13.127351658799746
-9.972099834857815
-8.373324506849926
-7.753884696854394
-8.698213655737433
-13.822050703391731
-8.858109378532161
-5.967630205239953
-3.0107541825073265
-1.1940486105267807
0.41642224863596783
1.1108166121495415
1.4609370806775626
4.146697830380116
3.8568475274932377
3.446869516116857
2.624941852787318
2.266168521036537
1.9390662582464926
1.2892620795399843
1.5139657257793546
1.3257559056668786
0.8123671591829497
0.42371096679247655
0.14468092184299625
0.32571605829342937
0.12489513402199222
0.3568768454594983
0.18574330431088037
0.06294607223846667
-0.38826518891913636
-0.3530402996602853
0.06593485077706618
0.4046559899584532
0.6657984978955578
0.11984283077823732
1.1609412930291936
1.2269513228287783
0.8819055963062953
0.9626877553428609
0.6479650049693683
0.7664782833119318
0.8598518677962808
0.5612491083380216
0.6968291914116449
0.43782498109083007
0.6082108663439458
0.7469075163463399
0.8545781403238903
0.9341066120787631
0.9895496024876584
1.0253818614930295
0.6773002468935188
0.7724227778130635
0.8505571414240043
0.5430721677090434
0.3058027517347591
0.13171368140156942
0.38002980935385405
0.9547413623383553
0.6632433568439033
0.7952047897652811
0.5260996180037636
0.31440845545399576
-0.21290276994867252
0.12903199202921173
-0.3232694992246304
-1.3999560025091802
0.005302878687707846
-0.3443386618327125
0.12020468022091985
0.11469533177047796
-0.2665822307699848
3.121301010408864
-0.9091415348071537
-1.1469860657115423
-0.5480891866644053
8.801477372837413
7.511259994675541
11.789123852337145
13.429084283901684
10.006085324488144
0.4931651681691349
0.47133016478833767
-5.977891671075138
-7.816737425361416
-1.5390061085537088
-2.688254764749639
-2.0432710923288213
-0.36767656993811704
0.5890425290454828
0.9364541069762038
1.8982014321219833
0.7494779443194284
0.543185170054068
1.4758496648431714
2.5544415865177377
0.7694246422229547
4.135940139208922
3.04033499887412
0.6323487122100837
-1.6245967712278477
-5.5297486481980975
-2.8994704414468844
-1.4281131584805125
4.566078218574914
5.123774132804272
2.0683888536836665
2.5273519249779817
4.698087420874614
1.5379350452684615
4.1850222860594855
2.183190847941605
2.0617758846944483
-0.6005874864841005
-1.5248715515421853
-1.040077339166672
-1.677984112584059
-1.0002303922588562
-1.1507989430156598
2.452989722523868
4.879618983679581
3.7100236585992126
1.5708023612211646
0.9631672366718805
1.2404027329901202
1.4757792955132791
-0.5460898977855364
-1.3595823626085237
-1.5553495657319794
-0.5287557790128457
-0.7857889837146632
-1.333764049216397
1.585532432248168
0.9092419040590314
0.6992774125513643
0.879848975788273
0.26602033184009954
0.14659621656157812
0.42824058457630854
0.28278953556541025
0.1684951801318353
0.45163804819707654
0.3052739714400231
0.5573029913521207
0.3829006809343559
0.611060929713646
0.4173185862567846
0.630534523653818
0.42581035219801305
0.26273230679542203
0.13890343902417246
1.1557508355854464
1.2068632442095875
0.8540085485289948
0.9320773652342447
0.9867600897166302
0.6536477350544516
0.7600998813136706
0.8463659052810668
0.9130338647738412
0.2246596003018413
0.061460140035177024
-0.04645324782133521
-0.11088949467265256
0.22592806076943167
0.5000696828914095
0.34417484840045576
0.218409802480077
0.4903450874539028
0.7025163210583291
0.49141328190309647
0.6877819613360397
0.46787327532909395
0.29186691752428673
0.1575613310258996
0.060253297476035216
-0.00596603926397739
-0.04729718133947108
0.2990542002484048
0.20471811287225553
0.12889651815041409
0.43947408923745573
0.3113964070882667
0.5744834189757468
0.40569709529952946
0.6355914986566039
0.8096811570234453
0.5660218882016387
0.7359093278269215
0.8641449887996343
0.9558963140217991
1.0173244531499361
