120,121,120,122,128,119,117,119,120,121,121,122,122,122,122,121,120,121,121,119,119,122,122,120,121,122,121,121,120,120,121,120,121,122,121,122,122,120,121,120,120,121,121,121,122,122,121,120,121,121,120,123,127,120,119,119,120,122,122,123,122,121,121,120,120,122,121,123,122,121,121,121,121,122,121,121,121,121,121,120,120,121,120,122,121,121,121,121,120,121,120,122,120,121,120,121,121,121,121,119,123,122,122,121,121,122,121,121,121,120,121,121,121,121,120,122,122,123,121,121,121,122,121,121,119,118,121,121
120,121,121,121,117,113,120,119,120,121,121,130,111,123,123,120,120,122,121,121,120,118,117,120,121,121,121,121,121,121,123,121,121,122,122,121,121,120,123,121,121,122,122,119,115,124,121,121,121,121,120,123,122,120,121,120,121,122,122,127,122,121,121,121,121,122,121,115,111,121,122,121,120,122,121,123,122,120,123,121,120,122,121,121,122,122,119,120,120,121,120,121,115,121,122,121,121,122,122,122,121,122,121,121,121,122,122,122,123,121,121,121,120,121,121,122,123,120,121,119,120,122,122,129,124,120,121,120
121,122,121,120,121,120,121,121,120,121,120,121,123,121,121,121,120,122,122,125,125,120,121,120,120,121,121,123,125,122,121,120,121,121,120,121,123,120,120,120,120,121,120,119,118,121,123,121,121,122,121,124,118,120,118,120,120,121,120,122,125,121,122,120,121,122,121,122,121,120,121,120,121,122,121,121,123,122,121,121,121,122,121,122,122,122,122,120,120,121,121,122,123,121,121,120,121,122,121,120,120,121,121,121,120,122,122,129,125,121,121,120,120,120,121,122,121,121,122,120,121,122,121,122,121,121,121,121
120,121,121,121,119,119,120,120,121,121,121,123,125,122,122,119,120,121,121,123,120,122,121,120,121,122,120,123,121,121,122,121,121,121,120,124,121,122,123,121,120,121,120,117,115,119,119,120,120,121,120,123,118,123,123,120,121,122,121,123,123,121,121,120,120,121,120,121,117,121,123,120,120,121,120,119,124,122,122,120,121,122,121,124,124,122,122,121,121,121,120,121,119,119,121,120,121,121,120,122,121,122,122,121,121,121,121,121,121,122,123,121,120,121,121,123,114,120,120,120,120,121,121,122,119,120,122,119
120,121,121,121,121,123,121,121,121,122,122,122,121,120,122,120,121,122,122,119,120,120,121,120,121,122,121,124,121,121,122,120,121,122,121,122,123,122,120,121,120,122,121,121,122,121,120,119,121,122,120,119,116,121,122,121,120,121,120,118,122,121,122,120,121,122,123,131,124,122,123,121,120,120,120,120,115,120,117,119,121,121,121,122,117,120,121,120,121,122,121,122,120,120,122,120,120,121,121,122,121,122,121,120,121,122,122,124,124,120,122,121,120,121,121,122,111,120,121,120,121,121,122,131,127,121,121,119
120,121,121,121,120,119,118,119,120,120,121,121,121,122,122,120,121,122,121,122,117,120,121,120,120,120,120,118,121,121,122,121,120,121,121,124,122,120,118,120,120,121,121,121,121,121,122,121,121,121,121,123,129,121,122,121,120,122,122,122,121,121,120,120,120,121,121,122,121,122,121,120,121,121,120,121,121,121,122,121,121,122,122,123,122,122,120,120,121,122,121,121,118,121,122,121,121,121,120,122,125,121,122,121,121,121,120,119,118,119,121,122,120,121,121,123,122,122,119,118,121,121,120,122,121,122,124,121
120,121,121,123,121,121,123,120,121,122,122,123,121,120,117,120,121,122,121,120,115,121,122,121,120,121,121,125,121,122,123,121,121,122,121,122,124,121,121,121,121,122,121,121,121,121,121,120,120,122,122,123,124,121,121,121,120,121,120,122,125,121,121,121,120,121,120,121,120,120,122,121,120,121,121,121,123,121,121,121,120,121,121,122,122,121,122,121,120,122,121,123,122,121,122,121,120,121,121,122,121,121,121,120,121,122,121,117,113,122,122,120,120,121,121,121,121,121,121,119,121,121,121,122,120,121,122,120
120,122,121,126,121,120,119,119,121,122,121,116,119,121,123,121,121,122,122,122,121,121,122,121,120,121,120,122,122,122,121,121,121,122,121,122,115,121,122,120,121,122,121,120,121,121,121,120,121,122,121,121,121,121,121,121,121,121,121,122,121,122,122,120,121,122,122,122,121,121,122,121,121,121,120,121,121,121,121,121,120,121,120,121,130,121,124,121,120,121,121,123,117,120,120,120,120,121,121,122,122,122,121,120,120,122,121,121,121,121,121,120,121,122,122,123,120,119,121,120,120,121,121,123,123,123,122,120
121,122,121,123,116,119,121,121,121,121,121,120,123,122,122,120,121,122,122,126,123,119,119,120,120,121,121,120,121,122,122,120,121,122,122,122,121,120,123,121,120,121,121,122,121,121,121,120,120,121,122,132,134,121,123,120,120,122,121,120,120,122,120,120,121,122,121,121,120,122,124,121,119,121,121,122,121,120,119,120,120,121,120,120,122,124,122,120,120,121,121,121,119,115,120,120,121,122,121,129,128,123,122,121,120,121,122,124,129,122,122,120,121,121,120,118,122,122,120,119,120,121,121,127,122,121,121,120
121,121,122,122,123,125,121,121,120,122,121,122,117,117,120,120,121,122,122,123,125,122,121,120,120,121,121,122,117,122,122,119,120,122,121,121,120,121,121,121,121,122,122,122,121,122,122,121,120,121,121,122,122,121,122,120,121,122,121,121,121,121,120,120,120,121,120,121,121,120,119,117,120,121,121,119,114,121,122,121,121,121,121,123,122,121,123,122,120,122,122,123,122,121,121,120,120,121,121,122,122,121,121,119,121,121,120,121,117,121,121,121,121,122,122,120,131,122,121,121,120,121,121,123,121,122,122,120
120,121,121,125,124,121,120,120,121,122,121,121,114,120,121,120,121,122,121,117,122,124,122,120,120,121,120,119,116,121,119,119,120,122,121,121,121,119,120,119,120,121,120,119,118,123,123,121,121,122,122,126,124,122,121,121,121,121,121,122,122,122,121,120,121,122,121,120,118,121,121,120,120,121,120,120,119,119,122,121,121,121,120,122,123,121,122,122,121,122,121,123,120,120,119,119,121,121,120,121,123,121,123,121,121,122,120,121,122,121,122,121,121,122,121,121,121,122,122,121,121,122,121,121,121,120,121,120
121,122,122,122,121,121,121,121,121,122,121,121,122,121,122,121,121,122,121,122,123,121,122,121,121,122,121,120,117,119,121,120,120,122,120,118,119,122,121,120,121,122,121,123,121,121,122,121,120,122,121,122,119,120,120,119,121,121,120,118,119,121,122,120,121,122,121,124,123,121,122,121,120,121,121,122,119,121,121,120,120,121,120,121,123,121,121,120,120,121,121,120,121,122,124,121,121,121,121,125,124,122,119,120,120,121,120,119,123,121,120,120,121,122,121,123,121,121,122,121,121,121,120,120,121,121,121,121
120,121,121,120,119,121,121,121,121,122,121,122,123,121,123,121,121,122,121,121,119,120,121,120,119,121,121,121,122,120,121,120,121,121,122,122,122,122,120,120,121,121,120,119,119,121,122,120,121,122,120,119,123,120,122,120,120,122,121,118,115,119,120,120,120,121,121,123,125,121,122,121,120,121,120,122,122,121,120,119,119,121,120,121,117,121,120,118,120,121,121,121,117,119,122,121,120,121,120,122,121,123,124,121,122,122,121,122,121,121,118,121,121,122,121,120,116,121,124,121,120,121,122,129,122,121,121,120
121,122,120,117,116,120,121,120,120,122,122,123,122,121,122,120,121,122,122,121,120,121,121,121,121,123,122,127,114,121,122,122,121,121,120,120,122,121,121,120,121,122,121,122,132,121,122,121,120,121,121,121,121,120,121,120,121,121,120,121,121,123,123,119,120,121,121,122,124,121,119,119,121,121,120,121,118,121,124,121,120,121,120,121,119,121,122,120,120,121,121,123,124,122,122,120,120,120,120,120,120,121,121,120,120,121,121,122,122,122,122,120,120,121,121,119,119,121,120,120,121,121,121,117,114,119,121,120
121,122,121,121,119,122,121,120,120,121,120,122,125,121,121,120,121,122,121,117,117,121,122,121,121,122,120,121,120,120,121,121,120,121,121,121,121,120,118,118,121,122,121,122,122,122,122,121,121,121,120,121,120,121,122,121,120,121,121,122,122,122,122,120,121,122,121,121,121,120,118,120,121,122,121,122,121,122,122,121,120,121,121,123,127,122,123,121,120,121,121,119,121,120,121,119,121,122,122,121,112,121,121,121,121,122,121,121,119,120,120,121,121,121,121,121,121,122,122,120,121,122,122,122,121,120,120,121
120,122,122,122,121,119,118,119,121,121,121,119,117,121,122,120,121,122,121,122,121,119,119,120,121,122,121,122,124,121,123,121,121,122,121,121,119,121,122,121,121,122,121,120,119,118,120,120,120,121,121,122,120,122,123,121,121,122,121,122,120,121,119,120,120,121,120,122,121,122,121,120,120,122,122,130,121,119,120,118,121,121,120,120,115,121,122,121,120,122,122,122,121,121,122,121,121,122,121,122,121,122,123,120,121,122,121,125,119,120,119,120,120,121,121,123,122,122,123,120,120,121,121,122,123,116,118,120
120,121,121,122,120,126,124,120,120,121,121,117,117,119,120,120,120,121,121,122,123,121,121,120,121,121,121,122,121,122,121,121,119,121,121,121,120,118,120,119,121,122,121,123,134,122,122,121,120,121,121,122,120,122,119,117,121,121,120,122,122,122,122,121,121,122,121,120,118,121,122,121,120,121,121,116,120,121,121,121,120,121,121,121,122,121,121,119,121,122,121,122,120,119,122,121,120,121,121,121,124,125,120,120,120,122,122,124,124,119,121,120,121,122,121,121,121,121,121,121,120,121,121,122,122,121,122,121
121,122,122,123,123,121,121,120,120,122,121,123,123,121,122,121,121,121,120,123,129,121,121,120,120,121,121,121,120,121,123,121,121,122,120,121,127,121,122,121,121,121,121,121,120,121,123,121,120,121,119,119,123,121,119,120,121,121,121,123,121,121,122,119,120,122,121,120,118,121,121,120,121,122,122,122,121,120,122,120,120,122,121,123,119,123,121,120,120,121,121,122,126,121,120,119,120,121,120,121,117,119,121,120,121,122,121,122,118,122,123,121,121,121,121,120,126,119,118,119,121,122,121,121,122,121,122,120
121,122,122,120,118,120,122,121,120,121,120,120,118,122,122,120,120,121,120,122,121,118,121,121,120,121,121,123,123,123,121,120,120,121,121,119,118,120,122,120,121,122,121,119,122,120,121,120,121,122,121,122,122,120,121,121,120,122,121,122,121,120,119,118,121,121,121,123,123,121,122,121,121,122,121,124,133,121,122,121,120,121,121,122,121,121,121,120,120,122,121,122,121,121,120,117,120,121,121,121,121,122,122,120,121,121,120,121,121,121,122,121,120,121,120,119,119,121,122,120,121,122,121,123,126,120,121,120
121,122,120,118,120,121,121,120,121,121,121,123,119,121,121,121,121,121,120,119,120,118,121,121,120,121,121,120,120,122,123,121,121,121,121,120,119,120,119,119,121,122,121,123,132,121,121,120,120,121,121,122,121,122,123,120,120,121,121,122,121,121,120,120,121,122,121,120,122,121,123,121,120,121,120,122,123,122,122,121,121,122,121,122,121,120,121,121,121,121,120,121,123,123,123,120,121,122,121,120,122,121,122,121,120,121,120,120,119,119,120,120,120,121,121,128,123,121,122,121,120,121,121,122,122,121,121,120
121,122,121,122,123,120,120,120,121,122,121,118,111,121,122,121,120,121,121,122,123,123,122,121,120,121,121,122,120,118,116,119,120,121,121,122,121,122,124,120,121,122,121,122,122,121,122,121,120,121,120,122,121,122,122,121,121,122,121,122,121,121,122,121,121,122,121,121,122,122,123,121,121,122,122,123,121,120,120,121,119,120,120,121,120,122,121,119,120,121,120,120,119,119,121,120,121,122,120,122,132,122,122,121,121,122,121,121,120,120,121,121,121,121,121,121,121,123,121,120,121,122,121,121,119,117,121,120
120,121,121,122,121,122,121,120,121,122,121,122,121,121,122,121,121,122,120,120,121,121,122,121,121,122,121,122,115,120,120,120,120,121,120,121,121,121,118,117,121,122,122,121,120,121,123,121,121,122,122,122,122,122,123,121,121,121,120,121,121,121,122,121,121,121,120,122,121,121,121,120,121,121,121,121,121,121,121,121,121,121,121,122,122,122,122,120,120,121,120,122,121,121,122,120,121,121,120,123,123,119,121,121,121,122,121,116,115,120,121,119,121,121,121,118,116,121,122,121,121,121,121,119,121,122,121,121
121,122,121,123,120,120,119,119,121,122,121,121,120,120,121,121,121,121,120,122,122,121,122,121,121,122,121,122,121,121,122,121,121,122,121,121,122,121,123,120,121,122,120,120,115,121,120,121,121,122,121,121,119,119,121,119,120,121,121,122,121,121,123,121,121,121,120,122,118,121,122,121,121,121,120,122,122,122,121,121,120,121,120,122,121,122,123,121,120,121,121,122,122,122,120,120,121,122,122,126,121,121,122,121,121,121,120,122,124,121,122,120,119,120,121,127,119,120,118,118,120,121,121,119,119,122,122,121
120,121,121,122,123,122,121,120,121,122,121,122,120,121,122,121,120,121,121,122,121,122,119,119,120,121,121,121,116,121,123,121,121,122,122,122,120,122,122,121,121,122,122,121,118,119,120,121,121,122,121,120,118,121,122,121,120,121,121,122,123,122,123,121,120,121,120,121,121,122,121,121,121,122,121,122,121,120,121,121,121,122,121,122,120,121,121,120,120,121,121,122,120,122,122,120,120,121,122,131,128,121,119,119,121,122,120,122,123,121,123,120,120,121,120,121,113,120,121,120,121,122,120,121,121,121,123,121
121,122,121,121,118,121,119,120,121,122,121,121,121,121,122,121,121,122,121,122,120,120,121,120,121,121,120,121,121,121,122,121,121,122,121,121,123,121,122,120,121,122,121,123,122,122,122,120,120,121,120,120,124,121,121,121,120,121,121,122,122,121,121,119,120,121,121,122,121,121,121,120,120,121,121,122,122,122,122,121,120,121,121,120,120,121,122,120,121,122,121,128,121,121,121,120,120,121,121,121,122,120,120,120,120,121,121,119,119,123,122,120,120,121,121,122,122,122,122,121,121,121,121,122,121,121,121,121
121,122,122,123,122,120,121,120,120,121,121,122,119,121,123,120,120,122,121,122,121,120,122,120,121,122,121,121,122,122,121,120,120,121,121,122,122,121,121,120,121,122,120,122,124,122,122,120,121,121,122,128,124,121,120,121,121,121,121,127,117,120,123,121,119,120,120,120,121,119,120,120,120,122,121,124,120,122,121,120,120,121,121,123,122,121,123,120,120,121,121,122,123,122,122,120,121,122,122,124,121,120,119,121,121,122,122,123,121,121,122,121,120,121,120,123,124,123,121,120,120,122,121,122,121,120,121,120
121,122,121,121,118,120,122,121,120,120,121,121,123,122,122,120,121,122,121,122,121,121,121,120,120,122,121,122,114,122,122,120,120,122,121,122,120,121,120,120,120,121,121,122,121,121,123,121,120,122,121,122,120,122,121,120,121,122,122,122,123,121,123,121,121,122,120,119,120,120,121,120,120,121,121,122,122,122,121,119,121,122,120,121,124,121,122,121,121,122,121,119,117,121,121,121,121,122,122,122,120,121,121,120,121,121,121,122,121,121,122,121,119,121,121,123,133,122,122,119,120,122,121,122,119,119,117,119
120,122,121,124,124,123,122,121,121,122,121,121,125,123,122,121,121,122,121,123,122,121,121,121,121,121,120,119,120,121,122,120,121,121,120,118,118,120,122,120,121,122,121,117,116,120,121,121,121,121,120,119,118,121,122,120,121,122,122,122,115,121,122,121,121,122,121,122,122,123,124,121,120,121,120,121,119,118,116,118,120,121,121,122,122,122,123,121,120,122,121,121,117,121,122,121,121,122,121,119,115,120,121,121,120,121,121,123,125,121,121,120,120,121,121,123,119,121,121,119,120,121,121,122,120,122,119,119
120,122,121,120,118,117,122,121,121,122,122,123,124,123,122,121,121,122,120,121,120,121,122,121,120,121,121,122,121,121,121,120,121,121,121,127,122,124,121,121,121,122,121,125,116,121,125,121,120,121,121,121,120,121,120,121,120,121,121,121,119,121,123,120,120,121,121,122,122,120,121,120,120,121,120,121,114,120,122,120,121,121,121,122,122,121,121,120,120,121,120,122,131,122,122,120,120,121,120,121,118,120,122,120,120,121,121,120,121,122,122,119,121,121,121,122,122,120,122,120,120,121,120,122,121,122,122,121
121,122,121,121,119,121,122,121,121,122,121,121,120,121,121,120,121,121,120,120,121,121,121,121,121,122,120,119,118,120,121,121,120,122,121,122,121,120,120,118,121,122,121,122,121,121,122,121,121,122,121,122,122,122,118,119,120,122,121,123,122,123,122,121,121,122,121,121,123,121,121,121,120,122,121,121,119,122,121,119,120,121,121,123,122,120,121,120,121,122,122,129,129,126,122,121,121,121,120,118,117,121,121,119,121,121,120,121,121,121,121,121,120,121,121,121,121,121,123,120,120,121,121,123,119,120,120,120
121,121,121,123,129,122,122,120,121,122,121,121,119,122,122,120,121,121,120,121,120,120,121,121,121,122,121,121,121,121,122,120,121,122,121,117,118,121,121,120,121,122,122,125,122,121,121,120,120,121,120,121,122,121,122,120,121,122,122,123,118,121,122,121,121,121,120,120,118,122,124,122,120,122,121,122,122,118,118,119,121,122,121,122,121,123,121,121,121,121,120,122,122,122,122,122,121,122,121,120,121,120,121,120,120,121,120,123,124,122,122,120,120,122,122,128,119,120,121,120,120,121,120,122,121,121,122,120
121,122,121,121,120,121,122,121,121,121,120,121,121,121,120,120,120,121,121,121,122,122,123,120,121,121,121,121,122,121,119,121,121,122,120,119,119,120,123,121,119,121,121,121,121,121,120,118,121,122,121,121,121,121,122,121,121,122,121,122,120,121,122,121,120,121,121,122,124,122,121,121,120,121,120,122,120,120,123,120,120,122,120,120,123,119,119,120,120,120,121,121,120,123,123,120,121,121,121,122,119,119,120,121,121,121,121,120,120,122,122,121,121,122,120,121,123,122,122,121,121,121,120,121,120,122,121,121
121,121,121,121,120,121,122,120,121,122,121,123,123,122,121,121,121,121,120,120,119,121,123,121,121,122,120,121,121,121,121,121,121,122,121,121,120,122,121,120,121,122,122,122,119,117,121,121,121,122,122,124,136,122,122,121,120,121,121,120,120,122,121,118,121,121,120,121,120,122,123,121,120,121,121,122,120,121,120,120,120,122,121,122,121,120,120,120,121,121,120,122,122,121,122,121,120,121,121,123,123,121,122,121,121,121,121,117,118,121,124,121,120,121,122,121,122,120,118,119,121,122,121,120,122,120,122,120
120,122,121,120,115,120,121,120,121,121,120,121,121,121,122,121,121,122,122,122,120,122,122,121,120,121,121,122,125,120,120,120,121,122,121,121,121,120,122,121,120,121,121,125,123,121,121,119,120,121,121,121,122,121,122,120,121,121,121,122,121,122,122,121,121,122,121,122,121,120,119,121,120,122,121,121,120,121,123,120,121,121,121,123,122,121,121,120,121,121,121,122,120,119,121,121,121,121,120,123,123,123,121,120,119,121,120,119,119,120,121,120,120,121,121,123,121,120,120,119,120,121,121,122,123,121,122,120
121,122,121,123,130,122,121,121,121,121,120,121,120,121,121,121,120,121,121,125,118,119,121,119,121,122,122,123,119,122,122,122,120,121,121,122,120,120,121,120,120,120,119,117,117,120,122,121,120,121,121,122,118,120,118,118,121,121,121,122,124,123,123,122,120,121,121,122,121,121,121,120,120,121,121,122,123,121,120,120,120,121,121,121,115,121,122,120,120,121,120,123,125,121,121,120,121,122,121,123,122,122,121,121,121,122,121,121,118,119,122,121,119,121,121,122,124,122,118,119,121,122,121,121,120,121,122,121
121,122,121,122,122,121,122,120,120,121,121,119,120,122,122,120,121,122,122,121,119,120,121,121,121,121,120,121,122,122,124,121,121,121,121,122,120,121,121,121,120,121,121,122,121,122,122,121,121,122,122,123,121,121,121,121,120,121,121,122,121,122,122,120,120,121,121,121,120,119,121,120,120,121,120,122,122,121,123,121,120,121,121,122,123,123,123,121,120,121,121,122,121,121,118,119,120,121,120,121,121,121,122,120,121,122,121,122,122,122,122,121,121,122,121,121,122,121,122,121,120,121,121,122,122,118,121,120
121,122,121,120,120,125,123,121,121,122,122,123,116,117,118,120,120,121,121,121,121,121,123,120,119,121,121,123,119,121,121,119,121,122,121,118,118,120,121,121,119,121,121,124,125,121,121,120,121,121,120,120,121,121,120,120,121,121,121,123,125,122,123,121,120,121,121,122,118,120,121,120,121,122,121,122,122,121,122,121,121,122,121,122,121,120,122,121,120,121,121,123,131,121,121,119,121,122,121,122,118,121,121,120,120,121,120,121,123,121,122,121,121,122,122,128,122,122,120,120,121,122,121,123,121,121,122,121
121,121,121,122,125,119,118,119,121,122,121,121,120,121,121,121,121,122,121,122,121,122,122,121,121,121,121,122,121,121,122,120,120,121,121,120,119,119,122,121,120,121,121,123,122,121,118,121,120,121,121,122,120,120,123,122,121,122,121,122,121,122,123,121,121,122,121,118,128,122,122,120,121,122,120,121,117,119,121,120,120,121,121,122,122,121,121,120,120,121,121,122,121,122,121,120,121,121,120,121,120,121,122,121,120,121,121,121,122,122,122,120,120,121,121,123,122,121,120,119,121,122,121,123,117,123,123,122
121,122,122,123,119,120,121,120,121,122,120,121,123,123,122,121,121,122,122,126,122,121,122,120,121,122,121,121,121,121,121,120,121,121,120,122,120,122,124,121,121,122,120,119,125,121,121,120,119,121,120,119,119,120,121,120,120,122,121,121,120,121,121,119,121,121,121,123,122,122,121,120,120,121,121,122,122,122,123,121,120,121,120,121,121,120,118,119,121,122,120,122,122,123,122,121,121,122,121,122,122,121,122,121,120,121,121,121,118,119,121,120,120,121,121,123,128,122,121,120,120,121,121,121,122,123,122,121
120,122,121,123,122,119,121,121,120,121,121,122,121,121,121,120,120,122,121,119,121,122,121,120,120,121,121,123,128,121,124,120,121,122,122,122,119,119,115,120,121,122,121,120,122,122,122,121,121,122,121,120,119,120,122,121,119,120,120,122,122,119,115,116,121,122,122,123,124,122,121,121,121,122,122,122,117,119,121,120,120,121,121,121,118,121,121,120,120,121,120,121,119,121,121,121,121,122,122,122,121,121,121,120,121,122,121,121,121,121,121,121,121,121,120,119,115,122,123,120,120,121,121,122,128,120,121,120
121,122,121,122,121,123,121,120,121,120,121,121,121,122,123,121,119,121,121,122,122,121,120,120,121,121,121,122,121,121,121,121,121,121,120,122,121,121,122,121,121,123,122,117,119,122,123,121,120,121,121,119,118,120,119,119,121,121,120,122,125,122,121,120,121,121,121,121,122,121,121,121,121,122,121,121,120,120,122,121,120,122,122,122,122,122,122,121,121,121,120,121,121,121,122,121,121,121,121,121,121,120,118,120,120,121,121,122,125,122,122,120,121,122,122,122,119,121,122,121,121,121,120,123,123,122,122,121
121,121,121,127,123,121,121,120,121,122,121,121,119,119,120,120,120,121,120,122,120,122,123,121,120,121,121,122,123,121,121,120,120,121,121,122,116,121,119,119,121,122,121,121,121,120,122,121,121,122,121,126,125,122,121,121,120,121,121,122,118,120,120,120,121,122,121,121,120,121,122,121,120,121,121,123,122,121,120,119,121,122,121,121,115,122,122,121,121,122,121,122,120,122,122,121,120,122,121,123,120,120,121,120,121,121,120,121,122,122,121,120,120,121,121,121,121,121,122,121,121,121,121,121,119,121,121,120
120,122,122,121,123,119,120,121,120,122,121,122,121,119,121,120,121,121,120,121,122,123,123,121,121,121,121,121,121,121,122,121,120,121,121,123,122,121,121,120,120,122,121,122,117,119,121,121,120,121,120,120,123,122,122,120,120,122,121,122,123,119,118,120,121,122,122,124,121,122,123,121,120,121,121,122,117,120,121,119,120,121,120,122,124,121,121,119,120,121,122,130,123,122,121,120,121,122,121,121,120,120,122,120,120,121,121,121,121,121,120,121,120,121,120,121,119,121,124,120,121,122,120,122,123,120,118,120
121,122,121,121,119,122,123,120,121,121,120,120,119,121,123,122,121,122,121,121,121,121,123,122,120,121,120,118,119,120,120,120,121,122,121,122,117,121,123,121,121,122,122,124,121,123,122,122,120,120,120,120,127,120,122,120,121,121,120,121,120,121,122,121,121,122,120,122,123,122,122,121,121,122,122,122,122,121,121,121,121,121,120,122,121,121,122,121,120,121,121,121,120,122,121,120,121,121,120,120,121,122,122,121,121,122,121,120,118,120,121,120,120,121,121,121,123,121,121,119,120,121,121,123,123,123,122,120
121,122,120,119,118,119,120,121,120,121,121,122,118,123,123,120,121,121,121,121,120,121,120,122,121,121,120,121,120,122,121,119,121,121,120,121,119,121,122,121,120,121,121,122,123,122,122,121,120,121,121,122,122,122,122,120,120,122,121,120,122,122,122,120,120,121,120,121,123,120,121,120,120,121,120,123,120,122,121,120,121,121,121,121,122,121,121,120,120,121,121,122,122,121,122,120,120,121,121,123,123,121,121,120,121,121,120,123,123,121,121,121,120,121,121,123,117,119,120,120,120,122,121,122,122,122,122,120
120,121,121,123,122,122,122,120,121,122,120,120,123,120,121,120,121,122,120,123,125,121,121,121,120,122,121,121,120,120,123,121,119,121,121,121,121,119,116,119,120,121,121,122,122,121,122,120,121,122,121,121,119,121,121,121,121,122,122,122,123,121,122,122,120,121,121,121,121,120,120,121,120,121,121,122,122,121,121,120,121,121,120,120,120,120,121,121,120,121,121,122,122,122,122,121,121,122,121,121,121,121,121,121,120,121,120,122,121,121,123,121,121,122,121,121,130,121,117,119,121,122,121,122,122,121,122,120
120,121,121,120,118,119,121,120,120,121,121,121,126,122,124,121,121,121,120,122,120,120,118,120,121,122,121,121,119,121,122,121,121,122,121,122,121,121,118,118,120,121,120,122,120,121,123,120,120,121,121,119,122,121,122,121,121,122,122,122,122,121,121,120,121,122,121,121,122,120,122,120,121,121,122,122,121,120,118,121,121,122,120,122,122,124,123,121,121,122,122,121,131,121,121,121,120,120,120,120,119,121,122,121,121,122,121,121,118,120,121,120,121,121,121,123,119,122,121,120,120,121,120,122,123,120,121,121
121,122,122,124,122,122,122,121,121,122,122,120,120,120,120,121,121,122,121,122,122,122,123,120,121,121,120,122,123,120,119,120,121,122,122,121,120,121,122,121,121,122,121,123,123,122,122,120,121,121,120,121,120,121,122,121,121,122,122,123,123,122,121,120,120,121,121,122,122,122,124,121,120,121,120,120,125,120,120,121,121,121,120,121,119,120,122,120,120,121,120,120,116,122,122,120,121,121,121,121,121,121,119,121,119,121,121,121,118,121,123,119,120,121,121,122,123,122,121,120,121,121,120,121,121,122,123,121
121,122,121,122,121,119,117,120,121,121,120,116,117,121,123,120,121,122,121,122,122,122,122,121,120,121,120,121,119,121,122,121,121,122,121,122,123,121,121,120,121,122,121,121,122,121,122,121,120,122,121,121,116,119,121,120,120,121,120,122,126,124,122,121,120,121,121,122,123,120,117,119,121,121,120,122,120,121,122,121,120,121,121,123,127,122,122,121,120,121,121,121,120,120,121,120,121,122,121,119,115,123,122,121,121,122,120,122,123,122,121,121,121,122,121,121,120,121,121,121,121,121,121,122,122,121,122,121
121,122,121,122,119,120,121,120,120,121,121,123,121,122,122,121,120,122,121,121,120,120,117,119,120,121,121,121,122,120,121,120,121,121,122,123,131,122,122,120,120,121,121,122,120,121,123,121,121,121,120,122,120,121,119,120,120,122,121,122,122,120,122,119,120,121,121,123,122,122,121,120,120,121,121,123,121,121,121,120,121,122,122,123,120,121,121,121,121,122,122,129,120,121,121,120,120,121,120,120,122,120,119,119,121,122,122,122,122,121,121,121,120,121,121,123,123,121,122,120,121,122,121,121,117,120,121,120
121,121,121,121,123,119,121,121,120,121,121,122,121,122,123,120,121,122,120,119,130,121,118,120,121,121,120,125,121,121,121,119,120,121,120,120,121,121,122,121,120,121,121,122,120,122,123,121,121,122,121,121,122,120,120,121,121,121,121,122,122,122,123,121,120,120,121,123,122,122,121,120,121,121,122,123,119,119,121,119,121,122,120,120,121,121,122,121,120,121,121,122,122,122,122,120,120,121,121,123,120,120,120,119,121,122,122,121,119,120,120,120,121,122,121,122,120,120,120,120,121,121,121,121,128,121,122,122
121,122,121,120,113,120,121,119,121,123,122,128,123,120,121,121,120,121,121,121,122,121,121,120,121,121,120,116,116,122,123,121,120,122,122,128,124,121,120,120,121,121,121,121,117,121,122,120,120,121,121,123,122,121,121,120,120,121,121,121,120,121,122,120,121,122,121,122,121,121,121,120,120,121,121,122,121,121,122,120,121,121,121,122,114,121,120,121,121,122,121,122,123,120,122,121,121,121,121,121,116,121,122,120,121,122,121,125,131,119,119,120,121,122,121,121,121,122,121,121,120,121,120,122,118,120,121,120
121,122,122,122,122,119,119,119,121,122,121,122,121,122,122,121,121,122,121,124,121,121,122,121,120,121,121,118,116,121,123,120,120,121,121,122,122,120,120,119,120,121,120,119,120,122,119,120,121,121,121,122,122,122,122,120,120,121,120,122,122,121,122,122,120,121,120,120,119,121,122,120,121,122,121,122,130,121,122,120,121,121,120,123,119,120,118,120,120,121,121,122,121,122,122,120,120,121,120,120,120,121,122,121,121,121,120,121,120,121,122,119,121,122,122,123,125,119,119,120,121,122,121,122,122,123,123,121
121,121,120,122,123,119,119,120,121,121,120,122,120,123,123,120,120,121,121,124,123,120,119,119,121,122,121,120,119,122,122,121,120,120,120,122,122,121,118,119,121,122,121,122,128,122,122,121,120,121,121,121,117,121,121,119,121,122,122,123,122,121,122,120,121,121,120,121,122,121,119,119,120,121,121,122,122,122,121,120,120,121,120,121,118,120,121,120,121,122,121,123,122,121,121,120,121,122,122,122,121,122,123,121,120,121,121,122,121,121,120,120,120,121,120,121,119,120,124,121,120,121,121,120,120,121,117,120
121,122,122,123,120,120,123,122,121,122,122,121,120,119,120,120,121,122,121,122,121,122,124,121,120,122,121,121,120,117,123,121,119,121,121,119,113,113,95,114,122,122,122,122,120,124,130,124,121,122,122,123,122,123,126,122,121,122,121,122,121,123,121,122,119,119,119,120,115,119,121,120,121,122,121,121,121,122,123,119,121,122,121,123,121,120,120,120,120,121,121,125,123,122,121,120,122,122,122,125,121,120,122,121,121,121,121,121,120,121,122,121,119,121,121,123,122,122,121,120,120,121,120,122,122,121,121,119
121,122,123,123,123,121,120,120,121,123,124,127,122,122,123,121,121,119,115,111,120,120,120,121,121,121,123,125,121,121,117,118,120,125,126,126,122,123,124,122,124,120,117,104,120,122,124,121,120,121,122,144,117,114,118,119,121,122,122,125,123,120,120,117,121,124,121,115,121,128,125,122,120,121,122,127,126,118,123,121,122,122,121,123,122,126,127,121,121,122,121,122,112,120,120,122,121,122,122,124,125,121,119,120,122,122,120,122,117,123,122,121,118,119,121,122,115,110,118,118,120,120,118,109,127,130,125,121
122,123,122,126,120,122,122,121,120,122,122,120,120,122,123,122,122,122,122,124,123,125,122,121,122,122,119,112,119,119,123,121,121,124,124,126,120,121,122,122,116,117,114,113,116,119,120,118,123,123,122,132,120,120,122,121,118,119,118,85,124,125,123,120,122,120,125,134,120,121,127,123,120,123,118,115,122,120,115,119,119,119,121,118,118,122,124,117,119,121,117,116,118,116,117,115,123,129,128,129,123,130,134,126,116,109,112,112,119,114,113,119,120,124,125,124,121,122,124,122,122,124,122,123,121,122,123,122
121,123,123,122,120,120,123,122,119,118,117,128,121,116,123,121,119,121,120,128,123,124,122,120,122,123,122,121,122,122,122,120,121,122,124,124,121,122,124,121,122,123,117,113,123,123,124,122,119,121,121,124,120,122,124,120,121,121,123,126,134,121,119,122,121,123,122,122,119,122,118,115,122,120,119,123,122,116,125,123,120,121,115,102,124,126,131,122,124,126,131,147,125,119,117,123,119,120,116,124,120,116,99,112,122,120,121,123,124,124,147,126,120,130,129,125,120,124,110,117,119,112,123,106,121,121,118,111
118,117,120,132,113,119,109,120,117,124,114,128,130,120,112,105,123,125,135,149,122,124,127,125,119,114,116,127,116,118,121,121,119,125,121,115,117,119,118,116,120,120,119,118,121,122,123,120,122,123,121,127,124,122,121,120,120,122,122,125,122,122,120,120,123,122,124,139,127,121,121,121,115,120,124,111,119,121,122,120,122,121,121,123,119,122,126,123,120,121,119,119,120,120,118,116,126,130,128,113,121,127,135,128,119,129,116,112,116,114,99,115,112,100,115,121,118,116,119,112,123,125,132,124,118,123,135,127
119,125,114,122,130,126,121,118,121,114,123,111,119,118,119,120,122,124,118,94,119,125,136,125,121,124,116,124,117,120,115,120,119,120,121,124,121,120,123,120,122,122,121,125,122,121,123,123,121,122,121,117,117,122,123,121,122,125,123,116,137,121,121,120,108,120,120,141,122,121,119,115,128,115,133,130,123,124,133,124,125,125,121,91,112,118,115,118,118,127,110,64,124,127,129,124,120,110,118,141,120,119,123,120,122,125,124,133,118,124,125,124,121,128,136,118,128,124,123,118,122,125,122,145,114,116,117,118
114,112,112,117,120,112,123,117,123,121,120,107,123,121,124,123,120,117,115,107,123,119,119,119,121,127,126,123,123,129,127,123,121,126,121,130,123,118,143,131,119,118,126,130,137,109,90,109,129,132,129,122,134,131,135,128,119,108,117,137,112,119,120,125,119,119,114,116,116,120,121,122,127,129,128,120,138,123,133,126,115,114,119,131,114,113,97,108,125,126,135,113,117,124,125,122,118,114,117,122,122,123,129,125,127,119,118,110,112,117,119,120,121,128,124,120,124,137,124,125,123,121,129,135,140,124,104,119
127,122,126,104,124,117,132,128,107,107,95,84,110,121,114,104,122,128,130,150,115,128,128,125,125,129,110,110,123,114,133,129,115,111,130,111,127,117,88,107,123,136,122,128,136,122,131,126,117,101,118,117,122,126,122,122,115,118,114,119,99,117,122,123,120,114,118,114,129,116,109,115,120,123,121,119,118,122,128,123,123,123,119,121,131,125,105,118,115,126,117,107,126,117,124,119,124,124,127,144,123,124,124,125,118,113,108,72,119,130,132,121,124,121,123,141,122,117,124,124,127,128,118,108,121,122,114,124
122,119,126,137,125,128,124,126,116,121,111,102,121,136,126,121,121,118,116,112,117,108,93,119,124,126,129,131,111,125,130,128,122,116,131,142,126,128,139,132,112,125,103,80,109,92,29,84,123,117,122,133,125,129,129,122,130,124,119,104,124,128,132,128,120,124,126,114,115,124,124,119,118,101,112,135,128,123,106,119,120,127,124,109,113,107,96,112,122,123,110,69,124,138,150,132,116,108,112,144,111,105,76,100,119,122,116,113,124,117,140,126,118,119,115,119,125,124,130,121,121,121,121,124,126,123,125,120
124,124,124,142,114,123,127,121,118,127,118,106,112,120,125,123,127,118,125,146,117,124,127,129,118,128,124,136,110,116,107,121,128,138,144,140,117,137,135,128,111,104,112,123,139,106,91,106,120,124,131,115,113,120,136,123,122,139,119,104,133,122,110,121,127,119,122,133,122,123,135,126,113,115,112,112,123,130,138,120,122,120,119,117,119,125,116,125,119,125,111,114,126,107,105,108,122,133,141,190,126,129,140,133,116,116,113,118,121,99,61,97,126,126,124,125,127,125,138,139,125,129,119,119,140,119,118,104
111,105,122,168,129,116,135,117,120,118,122,111,105,118,112,119,126,127,111,125,126,123,137,130,118,94,134,153,114,109,113,123,124,115,105,89,146,136,141,128,125,129,128,134,113,121,124,121,133,121,125,133,125,124,142,123,123,126,123,101,104,125,119,120,123,123,127,142,140,113,107,113,122,120,122,107,114,119,117,121,129,134,120,133,116,121,139,134,112,98,120,116,134,115,115,116,119,128,125,131,112,114,121,115,115,130,104,88,119,132,144,130,113,108,137,240,130,120,129,114,112,114,122,138,127,115,75,103
121,128,125,106,107,131,129,125,119,113,116,107,121,111,128,125,116,129,120,129,124,127,126,122,121,114,120,122,126,123,115,117,120,117,118,118,130,124,126,118,115,136,131,171,129,119,118,123,118,115,102,104,117,118,111,119,122,116,116,131,114,124,124,121,123,125,119,116,120,117,120,125,124,128,129,118,115,123,126,122,110,101,104,88,97,131,160,122,117,117,117,101,114,110,62,105,109,106,99,107,126,120,137,115,125,124,122,108,23,125,125,124,123,125,124,126,60,130,140,132,118,120,118,149,92,115,99,118
108,116,102,91,130,123,128,118,123,127,136,119,133,126,131,125,120,118,122,111,119,112,108,116,127,126,120,113,135,121,130,125,121,122,124,121,146,121,124,121,109,133,124,137,136,130,118,110,124,124,114,130,134,111,90,119,127,120,129,139,140,135,147,127,115,116,119,114,162,97,47,99,112,133,125,117,149,138,133,121,121,108,121,98,125,75,75,110,119,127,126,142,122,127,145,126,121,136,132,129,130,140,156,130,117,117,114,158,112,105,106,115,123,122,121,122,146,119,109,116,124,129,128,133,197,132,135,129
117,113,115,124,197,122,145,126,119,119,112,113,183,107,87,106,119,127,138,110,163,122,122,120,122,114,118,125,150,126,122,122,123,127,125,146,139,132,141,131,107,106,109,89,142,107,81,96,123,129,132,137,123,126,123,123,122,135,114,104,127,115,123,122,125,121,134,125,128,129,131,127,121,127,118,145,124,121,121,120,116,119,113,117,123,121,129,120,118,113,122,125,127,112,100,113,128,123,127,119,124,122,117,126,118,112,102,56,128,126,119,121,117,120,123,133,121,86,69,103,127,128,129,136,117,140,142,130
120,117,116,126,114,112,136,127,120,126,122,117,0,134,138,124,122,127,122,118,0,125,135,126,127,121,132,115,0,111,109,117,119,121,118,119,0,129,128,125,119,115,125,132,0,122,128,116,127,133,122,121,110,128,130,128,130,137,130,118,226,117,104,117,127,122,124,136,241,120,122,123,130,120,121,120,234,122,133,132,117,121,124,122,192,143,137,126,120,120,117,111,175,100,86,114,119,121,125,113,164,127,122,115,114,124,110,87,151,104,81,109,120,112,131,127,140,125,135,125,122,120,108,103,35,96,133,126
121,127,125,117,130,130,130,122,121,121,127,132,102,125,126,122,120,123,120,83,127,118,114,115,119,119,122,123,169,116,117,122,116,118,118,125,174,130,125,119,114,106,120,145,163,109,92,112,136,134,128,127,137,121,148,130,118,114,114,105,125,128,113,119,112,118,130,177,133,116,106,110,132,139,125,120,127,123,128,127,122,117,105,100,131,120,146,125,120,129,118,103,143,103,74,106,125,119,128,140,237,123,136,128,123,128,126,133,241,125,149,128,111,111,111,87,241,117,116,113,123,124,120,159,220,120,117,122
123,123,126,124,0,133,135,126,120,116,126,108,0,128,115,121,123,132,123,135,0,123,130,122,114,127,120,121,36,119,113,119,110,106,105,100,90,116,124,113,123,110,125,125,103,116,114,119,117,130,119,115,115,125,127,124,126,132,137,118,122,127,124,125,119,124,126,125,128,128,136,125,131,117,109,104,134,133,146,128,100,105,115,126,76,90,67,98,122,107,111,73,95,122,139,126,126,139,132,133,115,120,113,118,123,132,122,125,85,137,143,130,116,115,111,107,101,110,93,110,116,115,112,120,214,117,102,115
124,126,118,54,233,129,141,127,120,123,123,122,222,123,113,120,117,133,118,109,207,112,111,113,124,105,123,120,175,113,138,127,120,143,124,132,147,120,126,123,128,119,112,69,140,126,126,125,121,124,114,118,130,125,130,126,119,127,122,146,137,117,113,110,118,120,123,130,130,131,128,126,116,117,127,161,128,106,116,119,121,132,115,89,124,127,153,123,124,118,117,110,125,124,127,122,127,129,131,131,120,160,164,136,113,111,107,111,119,89,64,102,120,110,127,132,123,134,145,130,119,131,128,127,125,113,116,115
119,121,125,132,126,126,130,123,130,132,122,136,126,124,118,123,114,123,148,146,124,121,125,122,124,115,122,122,129,121,124,122,131,127,119,119,124,119,116,117,118,127,126,124,134,122,131,124,119,125,120,122,123,127,138,123,121,115,114,116,122,111,106,120,121,114,122,129,115,120,143,124,121,120,122,127,122,136,150,132,118,121,117,119,119,112,104,114,123,124,127,142,118,132,143,128,120,123,121,124,121,111,126,118,125,128,125,118,123,131,128,124,122,123,133,159,128,123,128,130,121,118,111,85,129,119,107,111
121,123,121,128,123,123,125,122,120,135,118,111,117,120,128,123,136,134,127,127,127,128,129,129,117,121,117,106,118,123,124,124,133,127,128,142,118,121,121,125,107,114,112,113,114,115,111,113,121,126,126,123,129,127,131,128,122,117,123,124,117,113,116,115,120,126,120,109,123,121,126,119,115,123,123,118,125,131,124,128,120,121,121,123,128,107,91,112,124,117,121,132,118,134,132,123,120,118,128,76,120,129,124,121,119,116,113,155,128,121,119,125,121,105,121,130,128,123,129,121,120,134,114,149,124,123,122,124
112,125,125,136,123,125,124,119,125,121,115,94,123,122,122,119,117,118,140,201,131,105,109,117,120,114,116,103,129,126,129,122,122,130,104,76,126,120,134,124,109,111,128,128,132,117,112,113,111,109,108,116,122,122,145,121,121,122,124,137,119,122,96,114,122,129,146,116,123,114,99,119,117,106,112,107,120,121,114,112,123,124,119,117,127,123,128,126,126,129,131,131,122,129,119,121,120,112,108,85,105,112,115,119,120,126,122,139,124,132,133,124,120,124,125,122,128,119,110,119,120,130,112,120,121,120,130,121
119,145,134,134,118,121,120,121,111,91,108,104,116,122,119,117,121,130,128,135,117,123,125,123,121,131,127,127,121,122,124,119,127,122,117,111,123,126,125,124,119,107,121,119,124,104,128,120,123,128,121,117,120,105,119,123,118,123,130,162,122,109,102,109,124,124,124,123,123,142,138,126,127,136,118,115,118,114,131,125,122,124,120,120,121,112,111,120,118,130,124,139,117,124,115,116,121,128,119,115,116,121,125,122,127,121,121,120,118,122,119,123,128,125,119,101,117,125,124,125,113,122,118,119,116,125,147,124
115,129,123,142,119,114,105,113,126,117,123,113,126,128,135,127,118,126,118,123,135,120,119,119,121,114,125,103,129,123,129,123,121,129,125,133,116,128,125,119,120,124,119,119,120,120,113,119,113,124,119,114,127,118,119,117,121,125,124,121,126,114,127,122,126,125,125,125,128,129,143,129,120,136,130,127,132,143,137,120,111,93,107,92,136,80,42,94,123,120,120,132,124,128,149,129,118,112,125,113,120,119,111,114,117,121,115,83,114,126,132,124,124,133,123,121,129,123,128,125,124,120,120,105,130,122,119,118
119,120,115,97,122,124,141,125,117,117,117,102,122,122,122,120,126,119,122,119,123,125,134,129,119,133,119,97,126,121,112,113,122,110,115,121,118,122,133,121,136,119,120,93,115,140,134,126,111,125,124,128,122,113,112,117,125,126,110,100,125,123,130,125,121,127,120,127,118,130,115,116,119,116,141,176,115,124,123,119,121,116,114,101,119,118,122,120,120,112,120,139,122,125,137,127,121,120,119,116,118,118,116,122,126,132,127,131,122,133,141,129,116,124,114,127,116,118,106,116,119,103,108,107,126,117,120,120
120,125,126,131,120,126,126,123,130,120,127,119,114,124,124,123,116,116,116,126,114,123,121,118,120,130,124,128,119,117,119,119,129,130,127,114,119,123,129,125,119,109,124,126,120,130,128,125,116,122,118,125,123,123,128,121,119,129,125,121,129,114,102,109,121,112,113,129,126,132,133,121,122,123,124,120,121,134,136,127,113,112,111,108,118,107,118,118,123,125,123,144,115,111,120,121,127,130,126,127,116,127,129,131,110,108,113,100,122,121,123,121,115,98,120,138,122,124,116,118,124,130,113,112,111,127,143,130
119,124,128,137,109,83,63,102,120,125,129,107,129,133,140,128,108,111,112,138,131,116,111,112,123,133,128,117,118,118,126,124,121,105,109,108,103,136,150,123,119,131,114,110,109,98,88,114,128,127,127,130,128,130,143,130,121,115,119,131,123,153,174,137,123,126,121,106,110,88,36,94,116,137,126,111,92,124,125,121,119,103,109,116,97,110,70,104,109,115,113,112,84,188,184,138,118,114,120,125,0,60,43,91,124,127,131,136,0,143,134,120,113,118,102,46,0,134,135,130,122,134,134,194,0,137,133,123
114,107,134,200,0,120,119,116,132,144,132,138,0,125,126,128,116,101,107,100,0,123,118,115,127,136,134,133,0,123,124,123,124,133,132,117,0,129,124,123,127,106,118,123,39,130,135,132,119,124,116,107,74,103,57,98,119,119,134,152,93,153,147,127,118,117,110,118,187,102,100,119,111,100,119,112,242,97,50,96,129,121,119,107,235,133,161,135,125,129,128,149,231,114,112,119,126,128,121,121,233,131,141,132,122,117,120,115,207,128,131,124,126,119,118,110,206,115,111,117,107,117,116,121,195,116,120,117
125,122,119,114,156,131,139,125,121,146,126,131,147,108,86,114,101,92,115,123,152,121,123,112,121,131,122,116,169,120,124,122,118,120,116,96,179,120,123,118,125,130,124,114,182,133,137,127,121,110,123,153,173,88,85,104,116,120,117,122,153,135,148,129,125,132,123,115,123,128,147,132,121,110,122,122,116,145,143,129,109,127,116,107,141,74,39,90,124,129,128,130,145,116,142,127,121,128,122,122,143,131,137,125,123,119,119,125,120,130,140,126,119,113,111,122,114,111,98,110,117,126,118,121,136,122,126,121
119,125,120,144,5,126,128,125,132,122,121,121,116,116,119,122,111,132,121,116,174,117,121,117,132,138,132,164,175,124,127,126,122,100,117,115,197,118,127,126,116,123,108,101,182,123,116,115,123,134,129,129,178,157,155,131,116,108,119,117,151,78,28,96,125,123,117,123,150,137,149,126,114,120,119,112,130,97,52,99,123,117,123,121,111,114,137,129,120,120,120,134,113,129,126,117,115,115,114,113,113,107,93,112,118,117,120,121,121,117,133,120,121,121,122,112,103,127,127,125,121,135,122,126,117,120,125,123
113,109,115,104,123,122,122,117,123,94,121,120,111,118,105,114,109,132,118,107,27,121,121,116,142,134,124,125,109,127,126,126,71,112,115,138,152,137,130,116,122,118,116,131,108,132,148,130,111,119,125,137,121,96,72,105,122,119,123,117,147,141,144,127,122,123,119,114,153,93,92,113,124,132,124,119,133,137,160,129,120,121,111,111,90,130,138,126,122,123,133,150,53,128,132,122,120,107,111,115,0,119,124,122,118,141,128,113,0,130,125,121,133,102,112,114,0,120,115,122,115,123,120,125,0,121,122,121
124,140,127,121,0,126,123,123,117,122,126,124,0,117,116,116,116,108,117,93,171,120,120,122,121,132,115,115,241,132,142,124,122,126,123,123,242,88,73,102,123,125,124,113,242,137,134,122,123,122,129,139,242,101,117,123,124,121,124,116,241,142,178,140,114,123,110,79,232,107,65,104,121,113,122,133,223,126,144,126,119,126,122,134,242,127,144,128,115,122,121,130,240,107,93,109,122,125,120,119,187,122,127,124,119,103,113,108,116,120,121,120,119,134,128,125,125,119,118,120,127,140,130,134,174,119,117,118
91,76,112,127,137,115,114,108,131,120,119,115,100,120,119,118,124,129,129,132,118,127,136,127,122,130,117,110,104,108,83,104,124,108,121,131,116,133,151,131,111,113,116,114,116,95,69,103,122,114,123,121,123,143,168,135,124,118,120,119,107,93,91,120,115,119,123,121,127,128,122,117,122,113,121,110,127,128,130,128,119,118,119,105,107,128,135,125,124,122,125,118,116,123,131,123,116,119,115,128,124,107,106,116,128,131,129,127,125,125,132,128,120,116,108,134,126,122,125,121,129,135,128,129,103,125,129,127
64,122,117,119,122,114,108,102,130,126,125,123,169,127,127,127,121,118,117,116,132,132,129,126,115,99,121,129,107,106,93,110,130,118,113,113,101,101,138,126,126,123,125,129,114,131,152,130,119,119,120,130,120,149,157,123,122,125,129,129,119,92,89,113,115,112,111,116,110,98,94,99,125,130,127,128,125,144,146,131,120,121,123,122,171,125,137,126,125,114,128,133,120,122,119,120,122,125,118,114,109,122,122,122,120,102,124,131,107,121,120,120,123,129,123,116,108,123,124,129,101,106,107,129,131,115,119,119
123,130,135,139,131,122,123,121,103,113,117,129,121,123,121,119,124,119,122,111,119,120,115,120,123,127,128,128,120,134,130,122,122,115,125,125,100,98,115,124,121,125,113,123,114,113,129,128,121,115,120,120,119,134,138,126,125,144,132,137,140,130,139,131,117,114,117,119,123,115,109,108,121,125,125,132,126,139,140,128,118,127,118,117,115,118,113,119,122,121,125,128,124,125,142,122,125,130,123,124,149,125,126,123,126,100,116,111,128,124,125,120,118,122,120,115,115,109,117,118,125,126,126,129,132,134,130,127
123,119,122,114,123,114,107,116,126,127,121,119,128,121,119,121,122,130,126,127,124,123,127,121,125,126,116,109,125,139,132,123,111,99,114,122,114,112,97,101,122,122,122,121,122,105,122,125,123,121,125,127,124,140,146,131,117,125,123,114,115,92,69,101,120,119,110,156,129,132,130,123,121,125,125,126,130,125,137,125,123,118,122,124,130,121,120,118,124,127,117,96,121,111,127,124,124,130,121,105,121,123,124,124,116,112,115,122,119,119,120,116,116,120,125,138,127,122,122,121,127,127,122,118,115,122,122,122
114,120,121,135,131,125,124,122,119,103,100,102,115,108,109,111,122,130,123,118,124,145,139,128,112,120,118,113,118,71,55,103,119,129,120,123,125,132,130,120,131,117,118,121,130,134,147,132,121,126,121,121,115,139,141,122,120,124,117,94,108,92,66,107,124,125,127,129,121,122,108,115,116,134,116,120,118,121,133,119,115,113,121,111,121,124,127,118,119,122,118,120,120,122,125,120,123,136,126,125,116,121,116,120,111,108,117,116,120,121,117,114,121,125,128,138,123,122,130,123,111,111,116,111,124,117,110,115
123,122,122,122,121,124,126,126,119,109,120,121,120,123,143,125,117,115,120,133,119,95,73,104,125,128,130,149,128,145,148,126,120,121,119,118,114,112,121,119,121,121,120,113,119,125,140,126,119,121,125,127,118,117,125,121,116,119,116,92,115,113,92,109,121,126,122,123,128,127,131,127,116,120,126,125,122,130,130,122,117,127,107,120,118,102,102,109,118,125,128,123,113,121,114,116,123,127,117,125,123,123,127,124,124,138,126,137,127,126,119,116,127,112,125,137,124,118,120,125,116,130,117,116,121,120,124,119
118,100,121,121,120,123,120,119,126,125,129,139,123,120,126,123,119,122,122,123,133,126,128,118,123,119,117,135,129,118,112,124,120,126,113,107,108,126,145,128,120,120,123,133,119,120,89,109,123,120,121,111,125,136,135,128,122,124,125,122,127,128,135,124,114,123,124,137,118,110,85,109,119,119,122,142,133,107,113,120,123,135,128,116,122,126,130,125,128,98,113,121,125,120,130,123,109,123,115,115,121,120,124,119,120,121,125,122,121,126,123,120,125,128,125,123,123,130,132,125,110,113,114,111,123,111,109,116
119,119,112,111,122,114,109,117,121,120,118,123,121,124,135,123,119,118,124,126,119,107,114,119,120,122,117,115,118,128,135,122,123,146,127,124,124,106,116,122,118,113,122,97,117,126,127,119,122,124,125,137,129,111,124,122,120,130,116,121,115,131,117,114,118,111,113,102,117,109,109,120,129,131,132,129,121,136,132,129,117,113,107,116,125,116,110,114,119,136,129,141,120,121,126,121,113,106,116,114,119,119,118,117,124,119,122,116,117,120,120,120,120,137,121,118,125,125,124,123,107,109,116,116,115,121,119,117
140,129,120,113,120,136,131,126,123,125,128,150,125,112,107,121,122,123,124,125,122,126,133,124,115,136,124,126,121,118,115,115,110,91,116,118,123,123,125,122,114,110,116,117,121,119,102,108,122,117,128,125,125,115,111,120,119,128,116,109,140,94,100,119,126,112,121,122,122,134,135,129,117,110,118,110,117,121,127,122,126,142,126,125,115,131,131,126,119,129,119,120,112,128,105,116,128,120,124,127,131,121,127,123,117,107,119,114,119,120,119,119,118,120,120,122,128,126,126,121,119,128,125,118,136,125,130,124
129,119,126,137,132,121,125,116,117,128,129,138,125,113,98,113,118,110,118,126,120,134,127,121,121,118,120,150,118,121,129,123,123,127,130,139,112,129,127,121,119,126,120,115,114,108,104,113,119,121,117,104,116,136,120,119,124,128,123,120,118,112,122,123,116,128,123,138,120,127,125,117,125,116,117,107,119,120,115,122,120,115,115,124,118,118,125,121,108,129,126,117,123,133,133,126,127,119,113,117,115,116,103,119,121,123,129,132,128,120,130,124,114,114,112,100,126,117,127,118,130,129,120,118,135,119,116,118
116,120,123,127,118,123,124,120,124,109,117,109,124,118,127,125,114,118,123,120,124,106,81,101,118,123,117,118,125,114,131,127,119,100,129,124,130,114,105,113,121,123,117,121,124,130,148,127,118,118,125,118,113,94,88,113,126,131,121,138,132,122,140,124,120,110,113,109,109,124,131,123,124,132,129,135,114,116,128,127,119,119,112,124,117,118,111,112,118,113,121,136,118,113,95,107,109,138,129,125,122,132,134,125,120,114,126,131,124,119,113,120,116,116,118,138,121,131,129,124,120,124,115,118,121,123,118,116
120,128,124,124,122,129,127,122,115,121,123,104,123,113,93,110,123,132,126,120,121,127,122,121,124,122,123,115,116,133,133,125,119,112,119,117,127,116,98,120,121,116,125,147,127,120,108,120,118,113,119,118,119,139,125,120,124,128,126,125,122,122,123,124,126,124,130,133,141,119,118,122,125,122,114,108,115,129,129,123,123,121,129,116,123,126,129,122,129,131,122,125,125,120,123,122,123,108,119,122,122,124,134,125,108,135,113,123,119,122,122,117,113,126,131,118,121,124,126,120,132,127,116,112,119,117,120,119
110,115,122,136,121,121,125,120,121,124,115,106,122,132,100,113,124,112,125,144,124,115,119,122,127,131,123,116,117,134,128,126,133,135,122,120,118,110,139,127,122,129,131,145,129,110,81,111,122,119,123,129,112,131,139,126,125,135,120,109,128,134,128,127,111,104,115,127,115,106,118,117,124,126,125,120,121,129,119,117,122,123,122,118,115,120,120,119,123,107,117,121,132,123,118,123,121,121,127,114,114,120,118,116,111,143,125,113,118,121,124,121,108,86,104,115,119,119,119,119,119,136,118,112,121,123,124,122
131,129,133,112,121,119,127,119,116,120,128,130,124,125,139,127,112,109,113,109,113,109,112,102,120,125,122,119,124,109,119,118,121,123,119,103,118,134,137,128,113,104,117,138,131,125,115,117,121,118,121,115,121,123,132,119,118,127,117,110,113,126,118,121,119,117,117,123,114,112,98,111,120,128,118,115,122,122,118,120,114,121,122,136,125,126,127,120,120,134,126,123,120,114,124,121,120,109,114,110,117,119,117,119,123,122,119,113,119,123,125,121,123,129,128,136,120,134,124,122,115,106,107,101,122,124,117,117
119,105,124,105,119,108,106,117,123,127,128,130,122,116,121,124,125,123,122,122,124,132,125,120,121,118,120,121,120,99,111,118,120,124,124,123,121,122,108,113,115,122,122,123,116,120,130,124,125,113,115,114,129,129,130,122,119,145,119,123,118,115,125,119,125,128,129,122,131,130,125,127,119,124,118,123,120,116,108,117,120,124,121,114,122,125,128,122,116,117,118,101,125,119,122,118,124,125,119,121,121,122,118,117,108,103,117,118,117,125,116,117,117,125,118,116,114,122,122,119,118,118,122,125,119,123,125,122
116,111,124,121,119,116,123,120,125,144,124,128,123,120,119,122,117,105,119,115,126,128,140,117,121,124,111,119,112,122,119,118,119,123,122,116,119,126,86,108,124,119,134,153,122,127,127,128,116,115,109,114,122,102,98,110,119,119,114,103,111,108,117,119,118,140,130,133,131,136,138,125,106,91,109,118,116,113,108,111,123,121,119,119,121,123,122,120,123,120,125,127,125,121,119,120,125,138,125,110,114,117,124,123,129,120,115,115,122,119,121,120,126,127,124,126,120,121,114,119,109,122,122,118,119,119,126,122
118,130,120,119,131,123,121,120,111,103,109,121,124,125,134,118,121,130,117,116,119,119,86,113,120,129,126,114,123,122,106,121,119,128,116,122,125,139,141,121,118,123,118,125,117,89,86,115,130,145,128,117,120,133,138,126,115,109,116,107,120,119,107,118,121,120,116,123,121,121,142,125,123,132,125,111,112,119,108,119,122,120,115,112,124,127,127,122,122,111,120,171,123,128,128,124,120,137,126,121,119,111,101,118,121,115,123,113,119,122,125,121,118,127,122,127,123,122,121,118,128,126,124,117,121,122,121,121
118,122,126,137,122,133,132,127,118,114,125,107,118,99,86,107,116,114,120,128,134,133,129,122,124,121,112,102,115,117,120,123,127,125,131,137,128,133,135,125,116,118,112,120,122,127,133,123,121,121,121,113,116,115,117,114,120,109,124,120,120,123,134,124,120,124,121,119,125,121,133,124,123,131,121,118,123,128,126,119,118,107,123,145,119,118,117,118,120,119,123,119,114,121,123,121,112,130,126,138,123,124,130,122,119,116,116,120,120,121,118,119,114,119,117,111,124,121,121,119,124,126,123,121,123,119,134,122
119,122,122,122,116,119,111,114,112,116,120,122,119,111,92,110,120,133,128,137,130,133,126,122,115,99,110,111,118,120,134,120,122,130,126,139,118,120,121,117,121,122,122,121,121,130,149,131,122,120,118,119,117,117,83,106,119,100,117,118,121,130,129,121,118,116,113,125,121,108,116,117,122,126,123,122,121,120,111,119,121,125,125,124,122,123,125,121,121,122,121,119,124,122,125,121,117,120,120,112,107,116,112,115,120,128,124,122,121,120,119,116,122,127,120,111,120,122,123,122,123,114,123,116,120,126,123,121
128,135,115,107,120,125,114,120,115,101,124,140,119,107,113,120,114,120,114,111,120,120,117,114,125,118,124,123,122,131,140,127,118,129,123,110,108,99,110,114,119,121,117,133,123,127,124,119,127,123,126,98,117,133,147,132,116,124,119,117,113,128,110,109,122,120,122,122,116,111,114,120,124,126,124,104,120,140,145,130,113,134,109,135,121,105,96,110,121,118,128,129,127,126,124,119,119,128,123,120,117,123,123,121,123,123,122,120,116,123,123,122,115,117,118,125,120,123,127,119,124,125,123,130,124,117,105,118
130,124,125,116,125,124,127,127,111,113,116,122,124,128,132,118,126,119,122,126,124,124,113,124,120,114,121,128,120,123,113,117,119,109,118,99,123,125,141,124,112,118,116,119,118,118,106,114,120,115,118,119,117,123,133,121,122,125,124,131,130,118,126,121,121,133,125,120,113,130,134,125,120,121,119,107,119,119,103,116,116,122,117,125,119,117,105,111,119,89,127,125,117,122,135,124,123,134,111,108,116,129,127,121,122,124,125,105,113,114,125,127,117,129,122,118,115,104,64,107,125,119,122,122,125,129,136,127
126,119,126,124,121,118,120,122,119,124,119,123,122,116,121,119,121,115,120,122,124,123,117,120,121,122,122,119,128,124,125,122,121,130,124,116,122,123,122,118,120,109,122,153,124,119,108,115,121,123,127,132,128,121,117,121,123,125,123,120,126,142,148,131,121,114,124,134,128,80,78,106,127,119,114,102,116,137,140,126,117,125,126,118,124,130,142,126,124,124,117,106,122,119,127,128,116,116,124,128,124,110,122,118,122,131,126,120,121,111,108,117,117,132,121,139,128,113,132,126,119,116,123,121,123,128,132,123
122,131,120,124,123,125,128,123,123,124,129,125,116,124,135,126,119,116,118,124,136,115,123,114,117,118,121,112,117,118,112,116,124,129,129,134,122,125,127,123,120,126,117,113,129,122,121,120,119,119,127,136,111,121,121,119,121,139,126,125,122,109,127,116,111,108,116,127,122,122,112,110,113,110,115,124,121,122,130,118,125,136,132,149,134,121,119,124,121,119,110,113,127,107,136,119,119,125,120,121,113,111,92,112,123,112,123,128,121,128,131,124,122,124,121,138,122,125,134,126,120,134,123,119,119,117,114,115
119,109,126,130,122,125,123,123,120,106,103,107,122,116,122,119,122,131,129,147,124,123,124,123,122,122,127,125,106,119,120,116,122,122,124,113,122,120,119,117,119,114,113,106,118,119,116,116,126,123,127,125,121,121,125,123,118,116,116,116,119,121,119,118,126,145,125,125,121,135,139,127,115,115,117,118,119,100,73,102,120,107,124,123,123,132,140,123,125,134,127,126,122,116,127,122,118,110,119,113,120,125,121,122,128,125,124,124,125,141,150,130,119,121,108,99,120,93,52,106,122,126,124,125,115,126,132,122
111,121,124,147,115,112,108,113,118,119,113,105,130,121,122,118,121,120,124,142,119,124,126,122,117,129,119,129,123,124,121,118,127,114,125,114,124,118,118,120,116,114,122,104,118,132,133,125,118,119,112,130,122,98,108,117,116,136,128,133,117,119,110,111,114,119,117,88,120,121,120,119,133,123,126,178,125,136,142,128,119,122,120,111,114,117,107,117,122,127,126,105,119,132,129,127,114,114,113,102,114,91,57,97,127,120,127,141,125,144,160,131,117,115,121,115,118,104,89,116,127,128,128,108,122,126,133,126
116,112,113,114,119,122,125,121,118,126,118,144,118,120,106,114,127,118,121,93,120,112,119,117,125,131,123,114,119,128,119,126,122,122,124,123,120,119,114,117,117,122,119,126,114,123,123,120,123,131,116,122,126,117,129,122,116,111,125,107,121,131,127,115,123,120,116,111,128,125,121,125,122,128,122,119,118,109,102,115,115,93,119,113,122,114,119,121,127,116,123,152,127,151,146,132,120,114,117,96,117,106,113,117,124,134,124,143,128,128,134,126,121,122,120,116,120,126,129,123,125,125,125,126,129,129,129,124
123,116,121,112,116,127,136,126,123,119,125,155,120,116,112,119,120,130,118,120,124,121,105,117,122,114,121,124,119,122,127,124,121,119,121,129,121,123,123,122,124,148,134,131,131,123,126,124,115,83,111,106,117,126,120,118,115,107,115,105,118,105,93,112,122,126,125,116,120,124,132,119,118,132,116,107,119,113,116,116,118,106,121,109,120,121,119,119,124,116,127,139,120,118,116,123,122,139,119,120,124,119,127,119,121,106,121,123,114,121,119,119,122,131,127,130,113,129,133,124,118,117,120,84,113,112,100,113
120,116,116,131,108,122,122,123,115,115,124,141,123,122,125,120,119,122,124,133,114,120,119,114,120,123,117,94,120,116,103,119,122,134,115,107,125,122,120,121,119,124,115,119,125,127,136,126,113,92,117,139,121,119,107,112,124,119,121,103,123,116,127,127,120,125,122,112,129,126,124,118,120,120,119,120,123,127,124,121,127,129,122,138,121,118,131,130,120,109,116,106,122,128,125,120,123,125,118,126,127,123,131,121,123,139,127,137,130,126,126,125,116,100,113,137,118,124,134,122,118,122,119,162,119,121,109,117
123,145,124,121,124,113,118,123,115,112,114,107,118,123,125,120,121,119,121,135,136,124,122,122,124,125,123,114,128,128,128,124,117,123,124,142,114,115,122,117,126,115,120,118,124,124,136,129,121,133,126,128,128,109,121,112,123,128,123,110,112,118,125,117,122,134,128,143,121,127,133,128,126,122,114,96,126,137,143,126,120,120,122,131,120,117,116,118,121,128,121,129,128,132,116,118,122,138,135,136,120,125,127,121,129,121,116,110,122,107,101,119,109,109,113,143,122,124,134,122,121,121,125,133,127,126,118,120
124,128,124,126,122,123,125,123,124,135,138,127,125,125,127,125,109,105,94,103,115,118,122,114,123,128,133,104,119,126,115,124,123,127,122,125,122,127,118,117,126,113,128,116,124,129,127,133,110,132,117,96,120,97,73,105,122,109,123,128,116,146,153,134,119,128,125,131,120,106,102,110,124,127,118,121,130,136,148,130,117,126,122,114,111,113,104,114,118,118,121,123,118,120,127,122,121,125,124,116,121,122,122,120,119,121,119,114,124,122,121,120,139,118,120,118,121,119,120,121,119,124,124,121,118,120,122,122
133,124,121,123,124,123,122,124,33,112,116,119,115,116,114,102,122,123,122,129,125,122,122,120,128,124,122,117,119,120,122,123,127,119,119,111,122,124,124,123,118,114,120,125,116,119,119,119,127,125,121,121,126,123,123,123,101,123,123,121,120,122,121,119,117,118,109,119,114,120,120,118,117,122,123,126,126,121,121,118,124,121,121,122,123,121,122,121,134,122,121,122,120,120,122,122,132,122,120,123,106,119,122,122,109,117,121,119,119,117,119,118,128,122,118,121,131,122,122,120,120,124,124,121,126,122,121,121
143,123,125,125,123,121,123,124,129,119,123,117,141,123,121,119,117,137,129,125,135,119,120,119,124,122,114,114,96,127,124,121,123,119,121,121,116,118,119,120,121,121,109,121,146,117,122,120,122,125,143,127,145,133,123,121,120,124,118,121,129,120,121,119,121,124,119,119,97,123,120,121,120,124,116,119,90,119,121,120,120,122,121,117,117,105,117,119,121,120,119,122,135,122,122,121,120,120,125,129,138,131,122,119,121,121,120,116,127,125,122,121,120,120,120,124,241,138,121,121,123,120,115,121,160,112,123,121
121,121,123,123,77,126,122,121,122,122,120,123,62,114,115,119,120,119,117,121,71,123,122,120,119,121,135,123,75,121,122,119,121,120,115,120,132,121,120,119,121,122,121,122,127,120,121,121,120,120,120,127,125,120,123,121,124,120,120,122,118,120,120,120,116,120,122,122,109,120,119,117,121,121,121,112,80,118,120,120,123,122,123,117,131,122,121,121,113,121,115,126,97,122,122,119,122,121,125,122,130,119,120,120,121,122,119,121,129,114,119,120,120,120,117,123,116,124,123,120,120,121,121,123,118,118,120,120
120,120,121,121,122,129,122,120,121,122,118,119,122,111,118,119,122,123,123,128,120,130,128,124,120,121,119,120,121,122,121,119,121,122,123,118,123,117,119,119,119,120,119,118,130,117,118,119,119,120,122,120,79,123,122,121,122,121,119,122,139,121,122,120,122,121,121,122,136,121,120,120,121,121,122,121,129,121,121,120,121,122,120,118,120,121,122,121,120,122,121,123,123,122,121,121,120,121,120,121,116,121,122,121,118,121,120,121,126,118,120,120,119,121,125,133,107,120,119,119,121,122,120,117,123,113,121,121
121,122,121,121,125,131,122,121,120,121,142,123,132,124,121,119,119,121,133,124,120,119,122,120,121,120,118,119,129,117,120,120,122,120,113,118,119,121,122,121,116,120,121,121,116,122,121,119,121,121,120,122,117,119,121,120,120,121,117,122,132,121,121,120,120,121,121,122,126,125,122,121,120,121,124,124,124,125,122,120,121,121,119,118,125,117,120,119,122,121,120,120,123,124,122,121,121,122,121,120,116,120,122,120,121,122,121,118,123,122,121,121,120,121,121,121,119,118,121,120,120,121,118,120,121,123,121,120
121,122,121,121,117,120,122,120,121,122,121,121,120,125,121,121,120,121,121,123,130,118,121,119,120,121,120,122,126,128,122,120,119,121,118,124,116,117,121,121,121,123,129,121,124,119,121,121,121,123,129,122,121,116,121,120,121,122,119,121,119,122,122,121,121,122,115,122,128,121,121,121,120,121,121,117,118,120,122,121,120,121,121,122,121,120,120,120,119,121,121,123,125,124,123,120,119,122,121,122,120,120,121,120,121,122,118,121,115,122,121,121,121,121,120,122,120,120,121,121,117,122,125,123,118,121,121,120
121,122,121,120,119,121,122,121,122,122,126,136,120,122,122,121,122,122,120,123,130,122,122,120,121,121,120,120,119,119,119,119,122,121,120,120,121,124,122,121,122,122,121,116,114,120,122,121,121,122,121,123,119,120,121,121,120,121,120,121,123,120,122,120,120,121,123,124,121,116,121,120,121,121,121,121,123,116,120,121,119,121,121,122,124,122,122,120,121,122,122,122,125,122,122,121,120,121,122,122,120,125,121,120,120,121,120,121,118,120,121,121,122,121,122,121,117,122,121,120,120,122,127,123,124,121,122,121
121,122,128,122,121,120,121,120,121,123,124,122,120,122,121,121,122,122,121,116,114,120,122,121,120,120,116,123,126,120,120,119,120,121,120,121,121,122,120,119,121,123,123,122,121,120,122,121,121,122,120,124,130,124,122,121,121,122,120,120,118,118,121,119,120,121,121,123,128,123,123,121,120,121,121,121,109,125,122,120,120,121,121,119,118,120,119,119,120,121,121,123,135,123,121,121,121,122,121,122,120,124,122,121,121,122,121,121,116,119,121,121,121,122,121,124,130,123,122,121,120,121,120,124,121,120,121,120
121,123,121,125,120,121,121,121,121,122,122,122,118,120,121,120,120,122,124,120,120,122,121,120,120,121,118,125,129,123,121,120,120,120,116,118,124,120,122,120,120,121,126,121,113,119,121,121,120,121,120,120,127,122,122,120,120,121,120,122,119,121,120,120,120,121,118,119,113,121,121,120,120,122,112,121,129,121,122,121,120,122,120,122,122,122,121,120,120,121,120,115,104,119,121,121,121,123,122,125,124,123,121,121,121,122,121,115,108,122,122,121,120,121,121,123,126,122,122,120,120,121,121,119,120,121,120,119
121,122,122,126,130,122,121,120,120,122,121,121,119,120,120,120,121,121,120,121,121,122,122,123,120,121,121,121,124,122,121,117,121,122,121,121,120,123,122,122,120,121,121,120,121,119,121,120,121,122,122,124,126,122,122,121,121,121,121,122,118,120,121,120,121,122,120,122,124,121,121,120,120,121,120,120,112,120,121,120,121,122,121,124,130,122,121,121,120,121,121,122,122,121,121,120,119,121,120,122,106,120,122,119,120,121,121,121,122,121,122,121,120,121,120,122,127,120,121,121,120,121,120,119,119,120,120,120
122,123,123,125,132,121,122,121,120,121,121,120,114,120,121,120,121,121,121,122,120,122,122,120,120,121,121,123,126,122,122,120,120,121,121,123,128,122,122,120,119,120,121,125,132,122,121,120,120,122,121,122,121,118,120,119,121,122,121,122,117,121,122,121,120,121,121,120,122,122,121,119,120,121,121,120,127,119,121,120,121,122,121,122,124,120,121,120,121,122,122,123,122,121,121,120,120,121,121,121,124,122,120,120,120,121,122,125,115,122,121,120,121,122,120,120,122,121,121,121,120,121,120,118,109,120,121,120
121,121,120,121,124,122,122,121,121,121,120,121,123,121,122,121,121,122,121,118,120,121,122,121,121,121,120,120,116,121,122,121,120,121,120,123,109,121,121,120,119,120,120,120,124,121,120,119,121,121,120,120,118,121,122,121,120,121,121,122,121,121,121,120,121,121,120,121,121,122,121,120,121,122,120,112,106,119,121,121,120,121,122,125,130,123,122,120,121,121,120,120,121,120,121,120,121,122,122,123,120,122,122,121,120,121,121,123,123,122,121,120,120,122,122,126,121,120,122,121,121,122,121,122,121,121,121,120
120,121,121,124,123,122,121,120,121,122,122,122,121,121,121,120,119,121,120,119,109,120,121,120,121,122,121,123,130,121,121,120,121,121,121,121,119,120,121,120,121,123,122,120,118,123,122,121,121,122,122,122,138,122,122,121,121,122,121,119,116,121,121,121,121,122,120,121,119,121,121,121,120,121,121,118,126,122,122,120,120,122,121,124,130,122,121,120,120,120,120,118,118,121,122,120,120,121,121,120,122,121,122,121,120,121,120,122,122,121,122,119,120,121,121,126,117,120,120,120,120,121,120,118,112,120,120,120
121,122,121,116,106,120,121,120,121,122,122,119,122,122,121,121,121,122,122,120,126,123,122,121,121,122,121,122,126,121,122,120,120,121,120,119,117,121,121,120,121,122,122,122,101,115,121,121,121,122,121,118,126,125,123,121,119,120,119,119,105,119,121,121,120,121,120,114,118,121,121,117,121,122,121,121,115,119,120,121,121,122,121,120,117,120,121,121,120,121,121,123,122,121,122,120,121,121,120,119,125,121,122,121,120,122,120,118,122,121,121,120,120,121,121,125,127,123,121,120,121,121,120,116,116,121,122,121
120,121,121,120,123,119,120,120,121,122,121,123,125,121,121,120,120,121,120,122,114,122,122,120,121,122,121,125,145,122,121,120,121,122,121,122,127,121,121,121,120,121,120,120,113,119,120,120,120,120,120,121,122,121,121,120,120,121,121,121,115,121,122,120,120,121,120,119,120,121,122,121,121,121,121,120,118,121,121,120,120,121,122,134,126,123,122,121,120,121,120,121,121,121,121,119,121,122,122,122,125,122,122,120,121,122,122,122,120,120,122,120,120,122,121,127,120,122,122,121,120,122,121,122,124,121,121,119
121,122,121,122,117,121,122,121,120,121,121,123,123,121,122,120,120,121,121,119,120,122,121,120,120,121,121,124,121,121,121,120,120,121,120,122,114,116,121,121,120,121,121,121,126,124,122,120,120,121,120,118,104,117,119,119,120,121,121,124,129,120,121,120,120,122,121,117,98,123,122,120,120,121,121,122,122,121,121,120,120,121,121,121,119,121,121,120,121,121,121,122,121,123,122,121,121,122,121,122,119,121,121,121,120,122,121,123,125,120,121,121,120,121,121,123,121,121,121,120,121,122,121,120,126,123,122,121
120,122,121,128,130,121,121,120,121,122,120,118,119,120,121,120,120,121,121,122,125,122,120,119,120,121,121,122,120,122,122,120,121,121,121,122,120,121,121,120,121,122,121,121,120,122,122,121,120,121,121,120,119,122,121,120,120,121,121,120,122,121,121,121,120,121,120,115,120,122,121,120,121,122,121,123,122,120,121,121,120,121,121,122,122,121,121,119,120,121,121,121,116,120,121,120,120,121,119,113,116,119,121,120,121,121,120,120,119,121,121,121,121,122,121,120,124,121,121,121,121,121,121,123,118,120,120,120
120,121,121,120,126,121,121,120,121,122,121,125,124,121,122,121,121,122,122,122,121,122,121,120,120,121,121,121,122,119,121,120,121,121,121,121,121,122,122,121,120,121,121,123,126,122,121,120,120,120,119,118,113,120,121,121,121,122,121,123,127,123,122,121,121,121,119,113,121,119,121,120,120,121,121,119,116,120,121,120,120,122,121,125,134,122,121,120,120,121,122,137,119,119,121,121,121,122,120,121,126,122,122,121,120,121,121,121,119,121,121,119,121,121,120,123,145,122,121,121,120,121,120,121,121,121,122,121
121,121,120,123,120,121,121,121,120,122,121,121,122,122,121,119,120,121,121,122,122,121,122,121,121,122,121,121,121,121,121,120,121,122,122,126,122,121,122,120,121,122,121,122,120,121,121,120,119,120,121,126,137,121,120,119,121,122,121,122,114,120,121,121,120,121,121,124,126,122,121,120,121,121,121,124,118,122,122,120,119,121,120,121,111,118,121,120,121,122,122,120,119,121,121,120,120,121,122,128,128,120,121,120,121,122,122,128,123,121,121,121,119,121,121,121,120,120,120,119,120,121,121,121,122,123,122,120
121,122,122,121,126,121,122,120,121,122,121,119,115,120,121,120,121,122,122,121,122,120,121,121,121,122,120,121,121,121,122,121,121,122,121,121,125,121,121,121,121,121,120,122,122,122,121,121,121,122,121,121,121,123,121,120,120,121,121,123,123,120,122,120,120,121,120,120,122,121,121,120,120,121,121,119,106,122,122,120,120,121,121,123,124,121,122,120,121,121,120,124,125,121,121,120,121,121,121,131,145,121,121,120,121,122,121,123,135,123,122,121,121,121,121,122,120,120,121,121,120,121,120,121,121,122,122,120
121,122,122,121,120,119,120,120,120,122,121,122,121,121,121,120,121,120,120,120,124,122,121,121,120,121,122,130,132,122,121,121,120,121,121,127,119,121,120,120,121,121,120,120,122,122,122,121,121,121,121,122,120,120,121,120,121,121,120,122,121,123,122,121,121,122,121,121,120,121,121,121,120,121,121,123,122,121,121,120,120,121,120,122,121,121,121,120,120,121,121,121,121,122,121,120,120,121,121,127,139,122,122,121,120,121,120,128,116,120,120,120,121,122,121,117,132,121,122,121,120,120,121,119,123,122,123,120
121,121,120,121,121,122,121,120,121,122,121,121,121,121,121,121,121,122,122,122,121,121,122,121,121,122,122,121,120,120,121,120,120,120,120,121,121,121,121,120,121,122,120,123,122,121,121,120,120,122,121,121,130,123,122,120,120,122,121,123,117,117,119,119,121,122,122,128,124,122,122,120,120,121,121,123,127,122,121,120,121,122,121,121,122,120,121,121,120,121,120,113,108,121,121,120,120,122,121,117,130,120,121,120,120,121,120,119,122,121,120,119,120,122,122,118,120,121,122,121,121,122,121,120,130,121,121,121
120,122,121,121,117,120,121,120,121,121,121,121,120,121,121,121,120,122,121,121,117,121,121,120,121,123,123,124,131,123,122,121,121,121,121,126,113,121,121,120,119,121,121,122,124,121,121,120,120,121,121,122,122,122,121,120,121,122,121,121,121,121,121,120,121,122,121,123,120,121,121,121,120,121,121,122,118,122,121,120,120,121,120,122,118,120,122,121,120,121,121,120,122,121,121,119,121,121,121,119,119,121,122,120,121,122,122,122,123,121,122,121,120,121,121,120,121,121,120,120,120,121,122,124,120,121,121,120
120,121,121,122,125,121,122,120,121,122,121,124,131,123,122,120,120,121,121,119,126,121,122,121,120,121,120,121,121,121,122,120,120,121,121,123,123,122,121,120,121,122,121,123,122,121,122,121,120,121,121,122,120,121,121,119,120,121,121,122,122,121,120,120,120,122,121,122,121,121,121,120,121,122,120,121,119,121,122,120,120,121,121,130,146,122,122,120,120,121,120,120,105,118,120,120,120,121,121,122,122,121,121,120,121,122,121,123,123,122,122,121,120,121,121,122,122,121,122,120,120,121,121,122,121,121,122,120
121,122,122,120,114,121,122,120,121,122,122,128,124,120,121,120,121,122,122,121,104,122,122,121,120,122,121,123,128,121,121,120,121,121,120,121,121,121,121,121,121,121,120,122,118,121,122,121,121,121,121,123,131,122,122,121,120,121,121,122,120,120,121,120,120,122,122,122,121,122,121,120,121,122,121,121,113,121,122,121,121,122,121,120,120,120,121,119,120,121,121,127,125,121,121,120,120,121,121,121,120,122,121,120,121,122,121,121,121,121,121,121,121,122,122,122,117,123,122,121,121,121,121,122,116,122,122,120
120,121,122,120,117,123,121,120,121,121,121,123,124,120,122,121,121,122,121,124,121,123,122,120,120,121,121,121,116,121,122,120,121,122,121,123,124,121,122,120,121,122,122,130,124,122,122,120,121,121,119,119,120,122,121,120,121,122,120,119,128,120,122,120,120,121,121,121,126,121,120,120,120,121,121,122,122,122,121,120,121,122,120,121,121,121,121,121,121,122,121,123,121,122,122,121,121,122,121,122,121,121,122,121,121,122,121,121,118,120,121,121,121,121,121,121,113,122,121,121,120,122,122,129,116,120,121,120
120,121,121,122,125,122,121,120,120,121,121,121,121,121,121,120,121,122,121,121,122,121,122,121,121,122,121,122,127,121,122,120,120,121,120,119,120,121,122,121,120,121,121,122,120,121,120,119,121,122,121,121,123,121,121,121,120,121,120,122,122,121,122,120,121,122,122,130,126,121,121,120,120,120,121,122,130,123,122,120,120,120,120,126,128,120,120,119,121,121,121,121,121,120,122,120,121,122,121,122,121,122,122,121,120,121,121,122,127,121,121,122,120,122,121,121,120,121,121,117,121,122,120,122,121,121,121,122
120,121,120,114,108,120,122,121,120,121,120,117,111,120,121,120,120,121,121,124,123,121,121,120,120,122,121,121,120,121,120,120,120,122,122,123,124,121,121,120,120,121,120,121,121,121,122,121,121,122,121,122,121,121,121,120,121,122,120,119,117,121,122,121,121,121,122,121,113,122,126,121,121,122,122,119,124,120,115,121,119,121,120,122,119,122,125,118,121,122,121,123,118,121,123,121,120,121,121,122,123,122,122,120,121,122,121,122,121,121,122,121,119,121,121,122,120,120,119,117,121,121,120,121,123,120,119,122
120,121,121,123,107,120,119,118,121,122,120,115,117,121,120,120,121,120,120,119,121,122,123,121,121,122,121,119,114,121,120,120,120,120,120,122,127,121,123,121,120,122,122,124,126,122,121,120,121,122,121,123,121,121,122,121,120,121,121,121,123,121,121,120,121,121,121,123,122,121,122,121,121,121,121,121,119,122,122,120,121,122,121,121,130,122,121,120,120,121,121,123,123,121,122,120,120,121,121,124,128,122,121,119,121,121,120,121,122,121,122,121,121,122,123,129,111,122,121,121,119,121,121,122,122,121,121,119
121,122,121,119,124,121,121,120,120,121,120,121,119,120,121,119,121,122,121,123,126,121,122,121,121,122,122,122,119,120,121,120,120,121,121,122,116,119,120,120,121,122,120,122,121,121,121,121,120,121,120,121,121,121,122,120,120,122,123,124,129,121,122,121,121,122,122,123,122,122,121,121,121,122,122,119,111,120,121,121,121,122,122,118,110,122,122,122,121,122,121,122,121,121,120,119,120,122,121,122,127,121,121,120,121,122,120,117,122,121,122,121,121,121,120,121,121,121,122,121,120,121,121,122,122,122,122,121
121,122,121,122,119,120,121,120,121,121,120,123,129,121,122,120,121,121,120,121,121,120,119,119,121,121,121,124,129,122,122,121,120,121,121,125,118,122,123,121,120,121,122,127,124,121,122,121,121,121,120,121,121,121,122,120,120,121,121,123,122,121,121,120,120,122,122,123,131,121,121,120,121,121,121,124,125,121,120,119,121,122,121,122,122,120,121,120,121,122,121,120,123,121,123,121,121,122,121,120,120,121,120,121,120,121,120,121,120,120,121,119,121,122,122,123,121,122,123,122,120,121,120,120,118,121,119,118
121,122,121,121,115,119,120,121,121,122,121,122,118,120,124,121,120,121,121,122,123,123,127,121,120,121,121,123,122,117,107,120,121,121,120,118,114,122,125,121,121,121,121,122,126,122,124,123,120,121,121,122,124,123,123,120,120,122,121,124,113,123,122,120,119,121,120,118,108,120,120,119,121,122,122,122,126,121,121,120,120,121,120,127,108,118,120,119,121,122,121,121,123,122,123,121,121,121,120,121,126,120,118,120,120,121,120,121,117,121,122,121,121,122,121,121,122,121,121,120,120,121,120,119,117,120,121,120
120,121,120,116,108,122,121,121,120,121,120,122,127,122,122,120,121,122,122,119,118,121,122,121,120,122,121,121,116,121,123,119,121,121,121,122,117,119,121,121,120,121,121,120,119,121,123,121,120,122,122,122,122,120,117,119,120,121,121,122,120,123,124,120,120,121,121,126,125,121,121,120,120,121,121,126,115,120,121,120,120,121,121,122,123,121,122,120,120,121,120,122,126,119,118,119,120,121,120,114,117,129,122,121,121,122,120,122,121,118,121,121,120,121,121,123,134,122,121,119,120,121,121,121,122,121,121,120
120,121,121,124,121,122,121,120,120,121,121,122,121,122,122,120,121,122,122,123,131,120,121,121,121,121,121,122,122,122,122,120,120,122,121,118,110,120,120,119,121,121,121,130,127,122,123,121,120,121,121,127,123,122,121,121,121,122,121,118,123,122,123,120,120,121,121,122,120,120,118,120,121,122,120,121,125,121,124,122,120,121,121,122,122,121,121,118,120,121,121,122,114,121,122,120,121,122,122,129,123,121,122,121,120,121,121,123,123,122,120,120,120,121,121,120,128,121,121,120,121,121,120,121,119,121,121,121
120,121,121,122,123,121,121,120,120,121,121,122,120,121,122,121,120,122,121,125,129,121,121,120,121,122,121,120,119,120,121,120,121,122,121,121,117,121,123,121,121,121,121,126,120,121,122,120,120,121,121,116,113,121,122,120,120,121,120,121,122,122,121,120,121,122,122,121,118,121,121,121,121,121,121,123,125,121,124,120,121,122,121,122,120,119,119,121,121,122,121,124,126,124,123,120,121,122,121,120,116,121,126,122,122,121,121,122,123,120,120,120,121,122,120,120,119,121,124,120,121,121,120,122,121,121,120,120
121,122,121,122,120,121,122,121,121,122,121,122,118,122,125,121,120,121,120,121,122,119,116,116,120,121,121,122,124,123,123,121,120,121,121,122,121,121,122,121,121,122,121,121,118,120,121,121,120,121,121,123,120,122,123,119,121,122,122,126,139,121,119,120,120,121,120,120,117,121,122,120,121,121,120,121,122,121,122,121,120,121,120,122,123,120,122,121,120,121,122,128,124,122,121,120,121,122,122,120,124,120,121,121,119,121,120,118,117,120,122,120,120,122,121,122,119,120,119,119,120,121,121,125,128,122,121,120
120,121,121,123,125,121,122,120,121,122,122,122,124,120,122,121,121,121,122,123,123,123,124,121,121,123,122,116,119,121,119,120,121,122,121,122,118,120,122,120,121,122,121,121,116,121,121,120,120,121,121,123,122,120,121,120,120,121,120,120,121,121,123,120,121,122,121,120,120,119,118,120,121,122,122,130,122,121,119,120,121,121,119,120,121,121,123,121,121,122,121,120,122,122,123,121,120,121,121,124,120,120,120,120,120,122,121,122,119,120,121,117,120,122,120,121,114,119,122,122,120,121,120,118,119,121,119,119
121,122,121,122,120,122,121,121,121,121,120,122,118,121,121,121,121,122,122,123,122,121,122,121,121,122,122,124,121,122,122,121,121,123,122,114,94,122,122,121,120,122,122,118,127,122,121,120,121,122,120,121,133,120,121,121,122,122,122,134,129,122,122,121,120,122,120,119,116,120,121,120,120,121,121,122,122,122,121,120,120,121,121,122,122,122,122,120,120,122,121,122,120,118,121,120,120,121,121,127,123,124,124,121,120,122,121,124,131,118,111,118,120,121,121,122,117,121,125,120,121,121,121,125,121,121,122,122
120,121,121,122,121,122,122,120,120,122,121,122,120,120,119,119,121,122,121,121,121,121,122,120,120,121,121,122,122,121,121,119,122,122,121,118,111,122,123,121,121,122,121,122,124,120,120,120,119,120,119,115,107,120,121,119,121,121,121,122,123,120,121,119,121,122,120,119,120,121,120,120,121,121,121,121,120,121,122,121,120,121,121,123,118,122,122,119,120,121,121,120,124,121,121,120,121,122,121,120,128,121,121,120,121,122,120,122,116,119,122,121,120,122,121,122,117,122,122,120,120,121,120,121,120,120,120,121
120,121,120,122,121,122,123,120,121,122,121,121,120,121,122,120,120,121,121,123,122,121,121,120,120,121,121,121,128,121,123,121,119,120,119,120,124,117,114,116,121,122,122,126,117,121,122,121,120,121,120,121,123,123,122,121,121,122,121,119,118,118,121,120,121,122,121,121,122,122,122,120,121,121,120,121,122,122,121,120,121,122,122,122,121,121,121,121,121,121,121,123,112,123,123,121,120,122,121,124,124,120,119,120,121,121,120,122,122,121,122,121,121,122,121,123,123,122,122,120,120,121,121,122,121,122,121,120
121,121,121,122,121,121,121,120,120,121,121,122,121,121,122,120,121,122,122,122,121,121,121,121,121,122,121,122,124,123,123,121,121,122,121,121,128,121,122,121,120,121,121,122,124,120,121,119,121,121,121,120,118,121,122,121,120,121,121,124,123,122,122,120,120,121,121,122,122,122,122,120,120,121,121,121,120,121,121,121,120,121,121,122,122,122,122,120,120,122,122,123,117,122,120,120,121,122,122,126,118,122,124,121,119,120,119,120,127,118,113,116,122,122,120,117,115,121,124,122,121,122,123,130,128,123,123,121
120,122,121,119,120,121,121,120,121,121,120,121,119,121,121,120,120,121,121,121,121,121,121,120,121,122,122,120,120,121,121,121,121,122,121,123,121,121,121,120,121,121,121,122,122,122,121,120,120,121,121,122,122,121,120,121,121,121,120,121,122,121,123,121,121,122,121,122,122,120,122,121,121,121,121,127,129,123,124,121,121,122,121,124,115,120,117,120,120,121,121,122,121,120,123,120,121,121,120,121,122,123,123,121,120,122,121,122,117,121,121,120,120,121,121,122,120,121,122,120,120,121,121,121,119,121,121,120
120,121,121,123,123,121,120,119,121,121,121,122,124,122,123,122,120,121,121,123,120,122,121,120,121,122,121,120,119,122,123,121,121,122,121,122,119,120,119,120,120,121,120,119,121,121,122,119,121,121,120,122,122,122,122,121,120,122,122,129,121,122,122,120,120,121,120,111,113,122,124,119,120,122,121,122,126,120,119,120,120,121,121,121,121,122,124,121,121,121,120,123,123,121,124,121,121,122,121,120,112,121,120,120,121,122,122,128,125,121,122,120,120,121,122,122,122,124,122,120,120,121,121,122,123,121,121,121
121,121,121,122,123,123,122,121,121,121,121,121,118,121,121,120,121,121,120,120,123,120,122,121,121,121,120,122,120,121,121,121,120,122,120,118,125,122,120,119,120,121,121,123,125,120,121,118,121,121,120,121,116,120,119,121,120,121,121,125,126,120,121,120,121,122,121,128,124,120,121,120,121,121,120,120,122,122,123,121,121,121,122,121,124,119,122,122,120,121,121,120,122,122,119,118,122,121,120,122,123,122,124,122,119,120,119,119,118,121,122,120,121,122,121,124,120,120,122,121,121,122,122,121,124,121,120,120
120,121,121,122,126,122,122,120,121,121,121,126,115,120,121,121,121,122,120,121,121,121,122,121,120,121,121,121,121,121,120,119,120,121,121,122,122,121,122,120,120,122,122,126,124,122,122,120,121,121,120,121,120,121,122,121,120,121,121,122,123,121,121,119,121,122,122,130,124,121,120,120,120,121,120,118,122,122,122,121,120,121,121,129,123,121,122,120,120,121,120,118,115,120,120,119,121,122,121,125,133,120,117,120,121,121,121,121,116,122,123,120,120,121,121,122,124,122,122,121,119,121,120,121,115,121,122,121
121,122,122,121,129,123,122,120,121,122,121,122,116,119,119,120,120,121,120,123,122,121,122,121,120,121,121,122,122,122,123,120,120,121,121,122,120,121,119,119,120,121,121,122,120,121,122,120,121,122,121,121,121,119,121,121,121,121,120,122,122,122,122,121,121,122,122,124,122,122,122,121,121,121,121,119,117,123,122,121,120,121,121,128,126,118,121,121,121,121,120,120,119,120,122,121,121,122,122,123,122,121,121,120,120,121,121,119,122,121,121,119,120,121,120,121,121,122,121,121,121,122,121,113,118,122,124,121
121,122,121,120,120,120,119,120,121,122,120,122,129,121,119,120,121,121,120,123,121,121,123,120,121,121,121,121,118,119,122,121,121,122,121,122,121,122,121,120,121,122,122,122,124,120,119,121,120,121,121,122,120,122,123,120,121,122,121,120,121,121,122,120,121,121,121,122,123,120,121,120,121,121,121,122,123,122,121,121,120,122,121,118,117,121,121,120,121,122,121,118,116,121,121,121,121,121,120,121,124,120,121,120,120,122,121,122,123,120,121,120,120,121,121,122,122,121,122,120,120,121,121,124,123,120,120,120
121,121,120,121,121,122,122,121,121,122,120,121,121,121,122,121,121,121,120,121,117,122,124,121,120,122,121,123,124,120,117,120,120,121,121,121,117,122,123,121,121,122,122,122,118,122,123,121,121,122,122,121,122,121,118,120,121,122,121,121,120,121,121,120,120,121,121,122,122,121,122,120,121,122,122,122,112,121,121,120,121,122,121,121,124,122,121,121,120,122,121,120,119,120,121,120,120,121,121,123,131,123,122,120,120,121,121,123,124,121,121,120,120,121,121,122,124,120,119,119,121,122,122,123,123,118,121,120
121,121,120,122,123,122,122,121,121,122,121,121,119,121,121,121,121,122,120,122,122,122,122,121,120,122,121,122,121,122,124,120,121,122,122,122,121,119,115,119,121,122,120,122,122,122,123,121,120,121,121,122,122,122,123,120,121,122,121,123,122,120,118,121,121,122,122,122,123,122,123,121,120,121,121,122,121,121,121,120,120,121,121,123,129,122,123,121,121,122,122,124,125,122,121,121,120,122,121,122,119,121,121,119,120,121,120,121,132,121,122,120,120,121,121,122,119,121,122,120,121,122,122,120,116,120,121,121
120,121,120,120,119,122,123,120,120,121,121,123,122,122,121,119,120,121,121,115,124,121,121,120,121,122,121,121,118,122,122,121,121,122,120,122,121,121,122,121,120,121,121,118,114,124,124,120,120,121,121,124,123,120,116,119,120,121,121,123,120,122,123,119,121,122,121,122,121,121,123,120,121,121,120,121,119,122,123,122,120,121,121,122,122,121,122,120,121,122,122,121,112,122,121,122,120,122,120,120,122,121,121,119,121,122,120,123,124,119,122,121,120,121,121,119,122,122,121,120,121,121,120,121,121,122,122,120
121,122,121,122,117,121,121,120,120,121,120,122,125,122,122,120,121,122,121,122,117,121,121,121,120,121,121,125,124,121,123,120,121,122,121,121,121,121,121,122,121,122,121,122,132,123,123,119,120,121,121,121,118,120,120,121,120,122,123,135,122,124,123,121,120,121,121,118,121,122,121,121,121,122,121,122,122,121,123,120,120,121,121,122,121,122,121,118,120,122,121,123,117,123,125,120,121,122,121,119,115,118,118,120,121,121,120,122,122,123,123,121,120,121,121,121,120,122,120,121,120,121,121,122,119,121,122,120
119,121,121,123,127,121,121,119,121,122,121,121,115,121,121,120,121,122,122,123,126,121,121,121,120,121,120,120,120,121,122,120,121,122,121,121,120,121,122,120,120,121,121,120,122,120,121,120,121,122,121,123,122,121,122,120,121,121,120,122,118,120,121,121,120,121,120,121,121,122,123,120,120,122,121,122,119,120,119,120,121,121,120,122,122,121,121,119,121,121,120,121,121,121,123,121,120,122,120,118,123,121,123,121,120,121,120,122,109,121,120,121,121,121,120,118,117,122,122,120,120,121,120,122,117,121,121,121
119,121,120,119,120,119,121,119,120,121,121,120,120,122,122,120,121,122,121,122,120,121,120,120,121,122,121,122,121,122,124,120,121,121,121,122,122,121,120,121,121,122,121,120,124,121,123,121,120,121,121,121,119,122,123,121,120,122,122,129,120,119,119,119,120,121,121,122,120,121,123,120,121,122,121,121,121,121,122,120,121,122,121,121,121,121,121,121,120,121,121,121,121,122,122,119,121,122,121,123,126,121,120,121,120,121,121,122,130,121,121,119,120,121,121,122,120,121,121,120,120,121,121,122,122,122,122,120
121,122,120,121,122,122,123,122,121,122,121,120,119,120,118,118,121,122,122,125,119,121,121,122,120,121,121,123,127,122,121,119,120,121,121,122,115,120,121,120,120,121,120,119,119,120,121,120,120,120,121,122,121,121,122,120,121,122,121,122,121,120,119,121,121,121,121,122,120,121,122,120,121,122,121,123,122,121,122,120,120,121,121,122,122,121,121,120,121,122,121,121,130,119,116,119,121,123,122,121,119,122,124,122,121,122,121,122,123,122,122,120,121,121,121,123,122,122,122,119,120,121,121,124,122,120,117,120
121,122,121,120,109,117,120,119,121,122,121,122,126,121,122,121,121,121,121,121,122,121,121,120,120,121,120,121,120,122,121,119,120,122,122,128,126,120,121,121,121,121,120,120,120,121,119,121,121,121,120,121,121,122,122,121,121,122,121,121,121,121,123,123,120,122,122,121,120,120,121,117,120,121,121,122,122,121,121,119,120,121,121,122,121,122,121,120,121,122,121,120,115,120,118,120,120,121,121,120,122,122,122,120,120,121,121,123,121,121,121,120,120,122,121,121,116,121,121,120,120,121,121,123,121,121,120,120
120,122,121,122,121,120,121,119,121,122,121,123,126,122,122,121,121,122,120,122,123,121,121,120,120,121,120,119,117,121,124,121,120,121,121,121,120,120,115,118,121,122,120,121,122,122,123,121,121,121,121,123,125,121,122,121,120,122,121,123,131,121,121,121,121,121,120,121,118,120,120,120,120,121,121,122,122,122,122,118,120,121,120,121,121,121,122,120,120,120,121,122,121,121,119,120,120,121,121,122,122,122,122,120,121,122,120,121,121,121,122,121,120,121,121,122,121,122,121,120,121,122,122,122,120,121,121,120
121,122,121,121,121,121,122,122,120,121,121,123,121,121,121,118,121,121,121,122,121,121,121,121,121,122,122,122,121,121,121,120,121,121,121,122,123,122,121,120,121,121,120,121,115,121,122,121,121,121,121,122,127,122,121,121,121,122,122,123,121,120,121,120,120,122,122,124,118,122,122,120,121,121,120,121,116,121,121,120,121,122,120,121,118,121,120,121,121,121,120,121,121,119,121,120,120,120,120,122,120,122,122,121,121,121,121,121,121,122,122,120,121,122,121,121,121,120,120,121,120,121,121,119,120,121,121,119
121,121,121,124,122,122,122,121,121,121,120,117,117,121,122,121,121,121,121,122,125,122,122,121,119,120,120,121,115,121,121,120,121,122,121,123,123,120,121,120,120,121,121,122,121,121,121,120,120,121,121,121,122,121,121,120,120,121,120,122,125,122,121,120,120,122,121,120,125,121,122,121,120,121,121,121,123,122,121,120,120,120,120,121,123,122,121,120,120,122,121,124,121,120,121,120,120,120,120,120,123,121,121,120,121,121,120,119,119,121,122,120,121,122,121,122,121,121,121,121,121,122,121,123,122,121,121,120
121,121,120,121,120,121,121,121,121,122,122,124,129,123,121,121,120,121,120,120,119,119,122,120,121,122,121,122,122,122,121,121,121,121,120,121,119,121,122,121,121,122,121,123,122,121,121,121,121,121,121,123,119,120,121,119,120,121,121,122,120,122,120,119,121,121,120,121,121,121,121,121,120,121,121,123,121,121,122,119,120,122,122,123,121,120,119,120,120,121,121,122,122,122,123,119,120,121,121,122,122,122,121,119,121,121,121,121,119,120,122,122,120,121,122,123,125,122,121,117,120,121,120,120,120,120,121,122
120,122,121,122,128,122,121,120,120,121,121,118,115,119,121,120,121,121,120,123,124,122,122,121,120,122,121,121,124,120,120,120,121,121,121,124,129,122,121,120,121,122,121,122,123,120,121,121,121,121,120,122,123,121,121,121,120,121,120,116,120,122,122,120,121,121,121,122,124,122,122,120,120,121,120,121,122,121,121,119,121,122,121,122,121,121,121,120,121,122,121,122,122,123,122,120,121,122,122,122,121,121,122,120,120,121,121,121,122,122,121,120,121,122,121,122,121,122,123,120,120,122,121,121,119,119,117,119
120,122,121,121,120,121,122,120,120,121,121,121,120,121,120,119,120,121,121,121,122,121,121,120,122,122,120,125,124,122,122,121,121,122,122,118,120,121,121,120,121,122,121,119,114,120,121,121,121,122,121,121,122,121,122,121,120,122,121,122,123,121,121,120,121,122,122,122,121,121,121,121,121,121,121,122,121,121,122,122,119,121,120,118,119,120,122,117,120,121,121,123,121,122,121,121,121,121,120,121,121,121,121,121,120,121,121,122,122,122,122,120,121,121,120,121,116,122,122,121,120,122,120,120,121,120,120,121
121,122,121,122,121,123,123,121,120,121,121,123,123,121,120,120,120,121,121,119,119,122,121,120,121,122,122,122,120,119,121,120,120,122,121,122,122,121,121,120,120,122,121,122,123,121,122,121,121,121,120,121,122,122,122,120,121,122,121,121,121,121,122,121,120,121,121,123,126,122,121,120,121,122,122,121,117,122,122,119,121,121,120,122,124,121,121,121,121,121,121,124,130,123,124,120,120,121,120,118,115,119,119,120,121,121,120,120,120,122,123,121,121,121,121,123,125,122,122,120,121,121,120,121,119,121,124,121
120,121,120,122,121,120,118,120,120,121,121,122,121,123,122,120,121,122,121,123,121,120,122,121,121,122,121,122,121,121,122,122,120,121,121,122,122,122,120,118,120,121,121,122,121,121,122,120,121,122,122,122,120,122,123,122,120,121,121,122,122,122,124,120,120,121,121,121,120,117,109,118,119,121,121,122,121,121,120,118,121,122,121,122,118,122,122,122,120,122,121,117,120,121,121,121,120,121,121,122,119,118,121,120,120,121,120,121,120,123,118,116,121,121,121,121,123,123,126,123,121,122,121,121,121,119,116,120
120,121,120,122,122,123,123,117,120,121,121,125,122,120,122,122,119,120,120,120,121,119,117,117,121,122,121,121,120,121,123,122,121,122,121,122,121,121,118,120,120,121,120,121,121,122,123,121,120,121,121,122,122,122,122,119,121,122,122,123,121,119,121,121,120,121,121,122,121,114,121,120,121,122,121,121,120,124,119,119,120,121,121,122,120,117,121,121,121,122,121,123,123,123,121,121,120,121,121,122,123,126,127,120,121,122,121,121,116,112,113,121,120,121,121,122,127,131,122,119,121,122,121,121,121,120,124,122
120,120,120,121,119,120,119,116,120,122,121,122,122,121,122,119,120,122,121,123,120,121,123,121,120,121,121,122,122,120,122,121,121,122,122,122,121,121,124,120,120,121,121,122,121,121,115,120,119,120,120,121,119,118,116,116,120,121,121,123,124,123,124,120,120,122,121,122,121,125,122,121,121,121,121,121,117,121,122,120,121,122,122,123,125,120,121,120,121,121,121,122,122,122,123,121,121,122,122,122,120,121,123,121,120,122,121,122,120,120,122,120,120,121,121,121,120,123,122,120,121,122,121,121,114,116,118,120
121,122,121,121,124,125,123,121,121,122,122,124,127,120,122,121,120,122,120,120,116,108,116,118,121,121,121,123,124,127,124,120,121,122,121,121,117,127,121,121,121,122,122,122,111,111,123,121,120,120,120,121,130,125,122,120,124,121,121,122,112,119,122,121,120,121,120,121,127,122,120,119,120,122,121,121,116,119,121,121,121,121,120,121,123,123,122,120,120,122,121,122,123,122,121,121,120,119,118,122,124,123,124,121,120,124,120,120,115,111,120,120,120,120,121,120,124,125,119,119,122,121,119,121,114,123,123,122
104,123,127,124,135,117,121,119,126,130,111,124,131,143,129,125,122,121,123,119,110,103,119,117,125,125,126,124,125,121,117,121,119,115,105,124,138,141,129,124,117,123,93,116,115,113,121,119,123,122,132,118,110,109,115,120,120,123,116,122,128,125,119,119,122,121,120,118,115,112,123,119,120,124,122,127,123,128,126,121,122,114,113,119,112,119,120,120,120,120,118,120,123,110,116,119,120,121,119,118,113,117,124,120,120,121,121,121,126,125,118,119,121,120,115,123,121,119,121,121,121,122,125,119,114,125,119,119
125,124,109,125,129,96,122,123,120,120,127,121,120,145,126,120,119,119,118,125,125,122,129,122,122,126,106,120,128,130,120,121,120,120,126,121,107,117,119,120,123,121,141,120,111,109,118,119,119,125,114,117,123,151,130,121,123,123,121,121,98,96,114,120,124,121,117,120,109,82,117,119,123,114,129,130,141,148,125,121,120,126,120,120,103,99,121,120,120,118,108,121,116,119,121,120,119,125,116,120,134,113,119,121,138,110,98,124,130,105,126,122,104,122,127,117,134,125,121,116,123,133,131,129,117,136,132,122
119,125,117,115,87,94,107,118,122,127,122,125,105,147,137,124,123,122,118,123,111,51,118,120,119,117,120,123,126,121,116,120,119,125,120,125,141,147,133,125,118,104,108,120,95,148,110,115,118,129,103,110,136,15,117,119,115,111,114,117,137,154,130,118,127,130,126,113,106,74,103,119,118,111,104,128,181,133,121,120,102,117,132,113,102,121,121,118,135,140,122,116,123,137,120,121,124,102,129,132,162,214,126,122,126,131,130,130,121,21,129,124,132,119,129,119,188,156,128,123,137,113,120,110,99,110,112,119
130,144,137,133,98,102,119,121,124,131,123,135,180,175,123,124,115,116,119,118,99,110,131,121,121,115,121,117,180,123,122,122,122,126,129,113,75,106,111,117,120,116,125,136,124,140,141,126,121,122,119,123,149,104,124,119,120,120,113,117,123,126,118,119,120,123,121,126,133,135,117,119,124,118,120,115,89,85,120,121,131,107,100,114,121,97,116,118,67,121,124,130,126,134,122,109,128,113,100,114,96,121,113,119,145,134,117,113,81,130,127,125,71,116,120,133,153,108,120,116,121,143,134,116,130,137,130,122
122,112,119,141,147,48,128,122,122,113,114,126,102,129,110,116,107,116,108,125,113,171,139,122,124,135,118,117,147,75,110,121,117,119,117,108,92,175,132,120,122,125,126,144,155,63,102,118,118,120,119,103,117,206,138,122,120,122,122,127,123,116,123,120,124,124,123,116,70,42,110,120,120,122,126,112,151,138,124,122,117,119,118,116,119,144,124,118,119,122,126,136,134,131,121,121,121,121,117,115,76,61,133,123,122,141,126,116,91,120,114,119,126,134,136,120,124,130,121,121,101,120,115,112,104,103,111,113
127,117,117,121,170,124,126,118,129,129,125,119,102,134,122,119,126,106,126,111,100,103,136,130,130,153,135,125,141,59,113,121,121,116,114,120,120,53,121,120,121,117,117,121,131,160,126,123,125,122,136,153,154,110,119,118,119,120,121,123,121,179,112,118,120,122,124,136,123,93,123,122,118,123,120,115,155,155,121,118,118,119,142,123,132,162,129,122,120,126,122,128,104,27,123,120,122,124,125,120,126,160,117,120,120,118,118,118,130,118,128,121,121,122,116,119,109,119,121,121,123,120,96,119,137,153,115,119
120,128,140,126,160,105,118,120,117,138,127,116,102,155,130,122,126,122,119,118,97,105,116,121,135,110,177,135,130,159,119,121,133,124,124,118,122,183,149,129,127,120,120,124,137,38,132,125,124,117,127,125,122,108,121,122,124,123,117,126,121,146,118,120,121,118,120,134,130,115,125,122,122,123,127,128,144,109,134,125,127,119,115,116,131,129,114,118,120,122,121,123,104,70,114,119,118,122,120,114,132,148,132,122,117,123,122,119,118,82,123,122,116,123,126,142,173,145,127,121,120,123,123,131,105,164,116,120
119,118,108,111,154,119,144,126,123,123,127,119,99,99,120,122,124,111,113,127,143,121,125,121,111,119,110,123,129,144,118,119,117,127,123,121,99,130,128,123,132,115,119,127,140,70,119,121,130,123,130,121,118,116,119,117,124,117,117,123,130,88,115,118,116,119,119,119,99,111,121,121,95,118,107,121,143,127,129,122,129,121,110,124,117,111,127,124,128,121,110,109,114,123,119,121,120,120,124,120,144,84,120,122,124,123,120,114,96,96,128,122,120,118,117,123,108,189,127,119,121,120,122,121,113,122,106,118
120,124,129,111,54,58,105,118,121,123,116,128,167,132,125,124,120,119,116,118,138,130,115,116,120,126,114,114,123,141,124,121,121,118,121,128,91,99,103,118,124,109,117,129,150,125,146,128,108,121,137,125,107,130,119,118,116,131,123,116,123,95,111,118,110,123,124,124,130,122,144,127,129,101,110,121,120,150,124,124,119,128,122,120,118,88,115,119,122,113,101,123,123,156,122,121,121,116,118,108,116,118,128,125,120,119,118,119,109,119,118,115,120,120,118,115,112,123,117,120,120,121,121,132,172,97,127,122
120,120,114,120,78,121,117,118,121,124,134,135,100,135,111,121,119,118,122,111,124,136,128,119,121,125,125,130,190,142,121,121,120,117,126,117,76,100,113,118,125,110,117,135,163,84,125,124,119,125,123,110,91,117,119,117,120,124,125,124,128,151,131,121,126,123,127,130,131,135,123,126,117,124,144,126,114,121,121,121,128,127,96,127,131,136,121,123,122,125,131,125,117,149,123,121,117,117,109,118,124,90,127,121,100,120,126,118,116,115,117,122,115,120,118,116,125,132,129,122,137,122,115,115,98,51,113,120
132,120,121,120,120,142,130,121,120,128,119,119,101,112,120,120,124,121,124,125,130,120,118,120,116,127,124,107,132,115,121,120,123,119,125,134,197,179,117,122,127,122,112,110,92,88,129,122,122,126,119,136,95,125,115,119,111,114,117,123,131,182,125,119,115,119,121,122,122,133,133,122,130,123,127,120,113,109,114,119,122,120,121,127,128,105,120,123,112,113,105,123,132,134,126,120,127,123,137,120,111,145,118,117,129,118,110,119,135,114,128,125,118,125,118,121,115,124,119,119,122,120,110,119,128,114,123,121
109,117,121,125,117,126,123,120,122,129,125,115,134,138,125,120,118,117,104,119,73,40,117,121,121,124,124,129,216,144,124,120,118,123,114,118,112,148,122,119,121,121,123,102,73,121,112,119,119,119,116,124,122,123,121,118,121,115,113,126,151,157,125,121,119,119,128,113,85,79,121,122,120,121,119,117,126,153,117,115,120,121,121,125,122,85,115,121,121,121,121,125,103,135,121,120,121,124,125,120,131,112,127,122,125,118,109,115,107,114,115,120,132,111,126,118,102,104,118,116,113,126,132,132,135,128,125,120
122,107,112,112,64,126,129,120,124,125,120,120,136,149,128,124,123,118,111,125,138,124,122,123,120,121,117,126,131,126,119,119,120,121,113,140,137,99,122,121,121,122,127,126,135,91,123,122,121,119,119,119,97,119,112,120,120,119,117,121,117,121,126,121,121,126,148,121,119,173,121,120,121,121,104,113,121,115,126,121,120,129,135,123,144,122,114,119,122,120,118,120,118,125,126,121,125,122,118,122,120,108,115,120,128,127,126,125,119,27,137,127,118,120,123,125,127,156,119,119,124,112,119,124,127,107,122,122
120,125,124,122,109,120,123,121,116,109,124,123,148,128,118,118,127,130,127,128,139,125,126,123,109,111,115,119,153,145,124,120,115,119,130,123,98,96,117,120,121,125,113,129,102,128,122,117,122,120,103,114,130,119,123,121,119,112,129,122,98,90,115,120,119,118,121,121,140,128,125,121,124,129,132,131,117,146,119,121,120,118,110,121,117,123,130,123,122,120,121,118,104,82,116,117,131,123,124,117,104,121,125,121,122,126,116,121,134,115,115,121,122,121,121,119,122,137,131,123,123,123,125,121,105,60,110,119
121,120,118,113,123,152,133,121,122,121,117,122,142,132,121,122,120,119,121,120,130,122,122,120,120,116,107,112,108,39,118,119,118,127,142,121,133,151,123,118,122,126,127,122,103,97,118,120,124,123,117,125,160,151,125,121,127,118,121,122,108,117,121,121,121,123,121,117,114,127,119,119,121,121,116,126,110,111,122,120,143,119,132,128,149,168,123,122,107,120,126,121,113,106,122,120,111,123,122,126,129,153,128,121,124,121,120,127,139,66,116,122,122,120,113,110,110,124,117,119,120,115,131,131,121,148,131,122
120,113,122,121,111,121,123,119,122,123,121,122,118,157,108,120,122,121,119,106,107,105,135,125,118,115,121,129,151,137,118,118,121,138,128,117,135,124,118,120,121,122,124,136,171,149,129,122,121,117,121,114,92,75,125,121,121,128,126,134,148,147,120,121,122,119,109,117,136,101,115,119,116,125,135,124,113,133,119,117,131,122,114,120,117,108,126,123,63,109,109,122,123,120,112,109,127,127,137,127,141,129,129,122,132,125,117,118,112,129,120,121,121,117,128,132,124,91,125,124,130,123,117,118,123,122,116,118
87,121,122,135,150,85,130,121,123,121,122,118,122,113,122,121,122,127,124,123,117,132,118,120,120,120,119,133,130,123,125,122,121,122,119,121,98,99,117,119,122,123,122,142,155,136,123,120,121,123,122,116,106,108,120,120,121,118,109,129,133,143,125,121,118,119,130,120,134,114,114,117,117,121,117,119,110,117,119,120,122,121,121,119,111,114,124,120,123,109,111,112,109,104,113,116,113,130,118,124,141,144,126,121,120,117,120,117,110,129,115,116,131,122,124,135,126,112,127,123,122,120,133,118,121,127,123,119
120,120,107,120,128,94,117,117,121,119,115,116,115,115,124,119,121,123,119,121,117,133,117,118,122,123,124,124,126,153,127,124,121,124,142,124,109,68,119,119,119,112,115,111,125,124,120,120,120,126,113,116,129,144,119,119,119,119,123,127,111,91,120,120,123,120,124,118,116,109,118,120,113,119,118,124,115,118,123,121,120,118,117,122,114,135,120,119,116,119,127,122,133,107,120,120,122,119,119,116,138,120,125,121,120,123,118,132,141,124,115,120,112,119,127,121,111,134,128,121,123,120,106,116,119,117,118,119
111,120,116,122,123,119,119,120,117,126,120,125,130,139,125,118,121,116,113,115,116,120,123,120,121,130,125,122,121,141,122,120,120,122,130,130,127,122,128,121,121,129,115,118,123,180,117,119,118,119,120,133,127,92,119,119,120,121,115,113,143,143,121,119,120,120,128,117,98,127,122,122,124,124,136,118,97,125,121,118,113,120,141,125,132,71,119,120,120,121,118,123,108,140,124,119,123,114,112,118,127,127,122,122,119,130,117,121,118,116,116,118,129,121,123,118,114,125,127,123,95,110,114,136,132,131,125,115
124,122,120,114,113,122,120,120,121,119,123,127,126,140,129,124,120,114,126,121,128,149,123,122,122,124,151,135,128,92,124,123,124,124,118,116,112,121,118,120,119,120,122,122,129,121,118,119,122,123,121,108,112,116,122,121,122,122,123,128,155,161,126,121,120,121,120,119,103,120,120,120,120,123,123,126,124,117,119,120,120,118,101,127,124,102,120,120,119,118,125,126,140,147,127,120,121,115,115,120,110,135,119,118,122,128,131,121,117,85,115,120,119,119,115,129,125,130,120,119,121,118,120,127,146,122,119,119
122,122,121,123,119,125,125,121,114,119,121,121,115,119,119,118,126,121,123,124,124,122,122,122,119,111,127,121,115,71,125,121,123,121,120,124,127,155,132,123,118,123,124,126,132,133,122,121,122,119,114,119,117,126,116,118,124,126,106,115,117,105,124,123,119,122,122,122,120,137,120,118,119,121,114,113,89,80,112,118,123,121,120,114,90,133,126,121,116,116,113,124,153,142,119,119,121,122,119,118,90,98,121,120,121,120,119,121,117,130,123,121,120,121,119,121,130,119,120,120,124,122,122,123,120,123,124,122
122,121,117,123,105,114,119,118,117,131,117,106,114,123,121,119,122,124,130,125,116,123,128,121,122,119,121,123,125,128,118,119,121,121,120,120,119,125,120,119,119,120,120,124,127,156,123,120,125,121,123,124,126,113,122,121,126,122,119,119,116,119,121,121,119,121,123,122,120,121,114,118,118,120,119,120,117,99,119,117,119,121,120,121,116,127,121,119,119,120,121,127,113,69,112,118,120,126,125,112,79,144,123,120,121,120,120,131,153,121,120,120,121,125,121,124,113,124,120,120,121,121,123,122,115,114,119,120
119,118,120,117,113,118,121,119,121,116,120,127,127,110,119,118,108,131,134,122,126,101,117,118,119,114,115,116,123,132,122,119,121,123,121,124,118,102,111,118,122,123,123,120,130,142,126,120,108,124,116,128,134,102,126,122,123,127,148,117,109,137,121,121,122,123,122,129,103,113,116,119,121,121,123,123,128,134,122,120,120,120,119,117,115,111,122,120,120,120,120,112,106,113,123,121,120,121,121,123,134,118,121,120,121,122,119,116,104,126,122,121,120,121,124,130,117,99,118,120,121,121,119,119,128,141,126,121
121,119,117,119,112,110,121,120,119,123,121,119,120,117,120,120,127,124,128,130,137,126,123,124,120,118,125,120,111,120,114,118,123,124,118,121,119,102,128,121,123,126,150,128,120,138,126,123,105,122,115,121,119,111,112,117,124,116,122,121,123,138,129,123,111,116,111,129,126,93,112,121,121,124,121,112,124,120,124,117,122,123,120,125,114,127,122,122,122,121,119,115,108,115,120,122,122,123,123,132,129,114,121,121,123,122,121,120,143,129,121,120,121,121,120,118,116,112,124,120,119,115,111,119,126,113,125,121
121,130,120,129,129,123,117,119,118,118,118,121,126,116,120,120,121,121,122,120,125,127,123,120,120,122,120,124,123,114,118,119,120,122,122,123,128,123,124,120,118,118,117,122,125,115,121,119,114,116,122,117,108,105,109,115,119,132,113,129,136,148,137,122,106,116,109,119,119,126,118,115,113,120,129,118,123,122,116,118,119,128,125,124,109,133,122,120,127,119,114,123,129,87,116,121,120,121,114,132,145,145,128,120,122,117,117,107,112,114,119,120,119,120,109,110,107,110,121,121,119,121,122,122,94,122,118,118
121,121,119,127,153,140,125,121,120,121,119,121,111,119,121,120,122,122,120,125,138,126,123,123,120,122,120,120,119,92,113,119,121,121,120,117,106,136,128,121,121,123,119,127,130,125,123,122,121,121,122,121,120,118,118,119,119,120,119,120,121,119,121,119,120,121,121,122,121,107,117,119,112,116,115,117,119,129,120,115,115,121,120,130,129,140,130,123,124,117,119,114,120,123,119,120,107,121,127,130,118,105,115,118,120,110,107,112,121,127,122,119,126,137,142,133,140,122,120,121,130,120,123,117,105,119,125,122
120,121,110,116,127,128,124,122,119,121,117,129,129,131,120,119,120,120,119,113,116,99,119,120,120,121,121,127,126,104,120,120,119,118,118,130,153,136,126,120,120,128,113,119,120,115,118,119,122,121,126,125,124,132,119,119,120,120,119,125,127,126,122,120,119,120,120,118,116,116,120,120,122,121,122,126,129,136,125,122,119,119,117,116,111,108,110,117,112,120,121,125,128,120,137,122,109,122,121,122,120,122,117,117,107,120,117,116,114,116,117,117,121,115,109,126,122,128,125,120,120,126,117,118,132,120,125,120
119,116,120,127,106,117,117,119,119,118,118,129,153,142,123,119,120,122,120,115,105,117,120,120,117,121,121,117,148,132,122,119,121,122,121,115,101,114,125,122,122,122,123,125,138,121,117,120,121,121,118,116,98,133,126,121,120,120,120,122,116,117,119,120,120,120,120,121,119,105,116,118,118,121,120,120,127,140,128,122,119,120,120,121,117,116,117,118,120,115,117,125,113,124,123,119,121,127,128,122,127,116,123,121,124,119,119,120,118,127,120,121,126,120,120,118,121,111,124,123,140,112,113,126,120,116,118,119
126,130,120,118,117,128,123,121,113,133,122,125,111,120,122,119,116,119,126,130,123,102,114,119,121,121,120,112,114,138,126,120,121,122,120,125,113,118,119,119,120,121,119,122,116,124,120,120,118,120,123,116,128,115,120,119,118,120,117,119,115,133,124,120,122,121,121,122,121,105,117,120,116,123,122,122,119,122,120,120,121,121,121,128,121,122,122,120,123,119,121,109,110,141,119,118,108,127,116,124,121,117,124,121,118,122,126,128,132,119,119,119,124,120,120,122,117,127,121,121,120,120,118,126,116,111,116,117
122,129,123,122,122,128,123,120,123,121,118,119,117,126,122,120,121,122,121,119,112,109,118,120,119,122,121,132,134,120,123,120,123,121,124,122,110,128,127,120,121,121,118,119,115,128,119,119,121,121,121,126,105,123,120,120,121,122,120,122,110,122,122,121,121,122,123,127,145,133,123,120,124,123,120,118,117,126,123,121,110,116,121,123,113,125,122,119,123,117,109,117,131,124,122,120,121,121,119,123,125,145,122,120,121,120,120,121,110,105,121,120,122,123,123,122,123,125,122,123,121,120,120,127,125,120,119,119
124,121,119,119,119,124,122,122,116,119,113,122,119,118,118,116,122,119,142,120,124,90,122,122,121,126,124,120,144,151,129,122,123,123,121,120,110,122,121,122,121,122,123,134,142,127,121,121,121,123,121,117,121,132,117,118,123,117,117,118,123,116,125,122,95,129,119,123,122,131,119,117,124,119,122,126,107,113,121,121,122,121,120,119,128,138,126,122,121,123,123,121,128,147,114,118,125,122,121,124,117,92,127,122,124,121,120,125,142,132,118,120,111,120,121,120,110,119,122,119,121,121,121,120,124,126,120,121
121,121,122,122,116,118,120,120,123,122,119,118,112,104,118,119,109,118,124,122,127,116,127,117,122,121,120,122,119,122,124,120,121,122,122,111,108,100,111,118,121,120,123,121,130,135,125,120,122,119,121,132,119,108,118,120,110,117,118,115,103,108,121,120,122,133,126,124,141,126,114,118,123,122,123,120,122,113,127,122,121,117,118,119,118,123,119,119,120,120,122,120,123,122,120,120,122,122,124,121,119,124,121,120,118,118,129,125,125,119,122,120,121,124,118,125,112,106,117,120,121,120,119,118,120,135,119,119
120,118,120,125,126,107,128,123,119,123,122,121,120,126,121,118,122,121,122,125,129,114,117,120,119,121,122,120,114,118,120,120,123,121,121,119,126,129,121,120,125,121,120,117,114,130,122,120,124,123,122,117,112,112,124,121,123,125,123,128,126,123,123,121,110,116,121,126,125,123,112,117,122,122,120,121,123,126,133,122,121,123,123,124,125,133,117,119,121,121,122,125,118,114,118,119,121,121,122,124,126,122,120,120,121,123,121,123,135,117,123,122,121,124,118,121,123,100,118,118,119,121,122,119,116,127,119,119
116,120,121,129,122,123,123,121,133,118,118,103,95,126,119,121,114,123,121,128,135,98,125,120,113,123,122,124,124,134,125,120,127,118,116,119,124,115,120,121,116,122,124,133,133,125,115,119,121,134,129,121,121,125,130,122,120,120,120,126,126,115,117,119,120,120,117,111,106,118,121,120,122,120,121,122,125,125,119,120,120,120,121,123,117,128,122,120,121,121,121,123,121,113,118,121,120,125,123,112,127,134,127,122,120,119,123,129,126,113,117,119,120,122,128,125,118,129,122,120,120,121,120,120,112,117,119,120
122,122,123,126,122,117,119,121,120,120,121,123,121,122,122,119,131,130,124,128,146,137,124,121,111,116,120,122,112,112,119,119,126,122,121,122,125,125,124,123,107,120,120,123,120,122,119,118,117,121,119,120,119,105,120,121,120,122,121,121,122,120,124,120,120,121,121,123,114,129,120,120,121,124,123,125,133,115,121,121,119,119,123,129,105,114,119,119,123,123,116,114,114,109,128,122,119,123,125,126,124,131,122,119,122,126,123,123,112,122,117,120,122,120,115,124,116,125,122,121,109,119,118,116,106,120,118,116
112,122,123,120,122,119,120,119,133,116,114,126,121,130,122,123,122,126,131,120,116,115,122,120,122,120,117,116,122,124,119,120,119,122,122,123,119,113,120,121,116,122,123,127,131,130,124,121,120,121,119,120,116,122,121,121,119,121,120,117,118,112,114,118,120,121,123,130,139,129,133,123,122,124,118,118,115,111,123,122,121,121,122,122,121,106,116,118,122,121,121,122,111,126,123,121,122,122,122,124,124,96,122,121,120,122,119,119,101,122,121,119,133,123,122,127,129,123,120,122,124,124,126,108,100,121,121,121
109,117,118,119,121,122,121,119,124,120,121,126,123,120,126,122,126,121,122,124,109,119,121,121,123,121,122,125,125,131,119,120,99,114,116,115,133,130,122,115,122,126,123,124,116,120,121,120,121,121,119,122,126,137,119,120,122,122,122,120,124,119,128,121,121,122,124,123,117,126,121,121,120,120,120,128,139,120,120,119,119,121,121,110,114,129,119,120,121,124,124,126,117,112,125,122,120,119,119,119,121,136,123,119,122,120,125,122,110,100,123,122,122,125,117,124,124,122,122,120,121,122,125,115,123,120,120,121
109,124,121,121,124,121,122,120,126,122,122,124,131,121,119,122,120,121,121,123,117,122,122,119,126,121,121,120,123,119,122,121,109,121,121,121,123,113,119,118,128,121,124,121,127,120,122,120,123,121,116,116,115,114,119,119,120,120,122,130,133,124,123,120,121,121,118,117,109,124,121,119,110,128,118,122,119,114,119,118,122,120,118,122,121,126,120,120,122,122,122,123,131,107,121,121,120,121,115,124,116,126,124,121,123,120,124,125,129,129,123,119,121,120,121,127,115,93,114,119,121,121,119,115,132,135,124,120
122,123,122,128,128,123,121,122,121,122,114,121,135,121,122,122,115,120,123,118,116,123,121,118,124,123,123,121,119,113,122,122,121,119,119,121,113,108,120,119,120,122,122,124,114,132,120,119,123,121,120,122,131,127,120,120,116,120,120,123,120,122,121,119,129,120,120,124,119,115,121,121,104,127,125,121,122,120,122,121,123,120,123,125,125,127,122,120,123,119,121,115,112,119,117,121,121,124,125,129,122,121,129,122,121,121,121,114,126,121,119,121,121,122,122,126,117,119,120,120,120,121,121,119,134,122,121,120
121,122,120,128,138,104,122,120,121,122,122,120,101,121,123,121,121,121,123,124,127,117,117,119,120,119,122,122,114,128,129,122,120,122,120,130,135,131,121,121,122,123,121,111,103,111,117,121,121,122,123,123,124,112,121,120,120,121,121,125,127,128,120,120,122,122,123,123,125,133,125,120,116,120,117,120,117,94,112,118,120,122,123,127,141,143,129,122,118,119,121,117,115,118,120,119,125,121,118,118,121,119,120,121,115,121,123,126,111,133,121,119,123,122,121,120,128,106,124,122,122,124,120,123,117,110,115,120
121,120,121,124,118,129,121,121,120,122,120,128,126,123,121,120,121,121,122,119,120,107,120,121,120,123,121,117,120,111,120,120,119,120,122,130,129,141,125,119,121,122,123,124,120,121,121,120,121,122,115,117,108,115,117,119,120,120,120,122,104,121,120,120,121,118,118,120,124,124,123,121,121,129,123,124,126,127,126,122,123,118,117,120,115,109,114,119,124,116,122,119,122,120,129,122,119,130,123,123,120,124,118,119,119,118,119,122,122,117,119,120,126,117,122,123,119,127,123,121,130,119,121,124,122,119,122,122
125,121,119,119,121,120,122,122,123,120,121,126,124,126,121,121,121,121,114,116,132,117,125,122,122,123,123,130,134,114,117,119,121,121,120,115,112,137,126,121,122,121,122,133,143,115,122,120,120,122,122,127,119,126,121,121,121,122,119,112,124,139,125,120,120,121,122,132,149,86,115,120,121,121,118,120,128,135,125,121,121,122,123,121,119,119,118,119,121,120,116,120,120,133,125,121,119,122,125,122,123,112,119,119,122,122,119,121,119,114,121,122,123,123,123,121,118,125,122,119,128,119,121,128,127,117,120,121
123,121,123,110,106,125,120,119,121,117,120,125,122,121,121,120,121,121,123,123,113,119,120,119,123,121,121,123,128,125,123,122,118,121,121,125,128,134,123,120,123,122,117,121,108,90,121,121,120,122,121,122,127,128,121,121,121,121,122,120,121,123,122,120,120,118,120,133,136,105,116,119,120,123,120,120,118,130,126,120,120,136,121,123,125,127,118,120,118,108,120,119,113,117,123,120,119,120,120,122,128,122,119,119,122,129,120,118,116,114,120,119,120,120,119,120,121,127,125,120,121,124,121,124,129,130,121,119
121,124,123,118,106,121,120,120,106,122,119,121,119,124,122,119,126,120,119,123,94,120,122,122,114,120,123,125,134,114,119,118,122,122,119,122,129,137,124,121,122,122,123,122,102,111,121,120,122,123,123,122,131,122,119,120,121,121,121,126,126,123,121,121,119,118,118,119,129,122,126,120,120,121,122,132,118,123,119,119,121,121,121,121,119,113,119,120,120,121,121,123,126,116,120,120,120,121,119,117,111,130,121,120,120,122,121,122,128,121,123,121,121,122,121,116,103,108,119,121,119,121,121,124,129,149,124,119
120,121,122,124,126,105,119,120,119,121,121,122,114,129,121,119,119,122,122,122,127,125,119,119,124,121,114,122,126,122,124,123,112,119,119,122,126,121,120,118,122,128,122,111,104,114,121,121,114,125,128,130,124,119,123,121,120,122,121,125,121,121,122,120,123,113,117,124,143,117,119,121,116,128,122,114,98,109,122,119,123,120,117,131,136,125,117,120,115,123,124,120,132,130,124,121,122,121,124,122,127,126,122,123,119,121,119,124,119,98,119,116,121,121,121,122,122,129,120,121,121,121,121,123,127,126,123,122
121,122,121,122,130,121,121,121,121,121,123,122,119,120,122,121,120,121,120,119,112,101,117,120,120,121,122,124,124,118,123,120,122,123,116,117,118,124,121,120,133,121,122,118,120,130,118,119,123,120,118,131,130,108,125,122,121,122,124,119,117,125,122,120,127,123,124,119,117,119,121,122,122,127,122,125,129,123,120,120,123,115,123,123,108,118,122,121,122,117,118,121,116,115,121,121,120,126,121,120,110,118,122,122,121,121,122,123,123,119,119,119,121,121,121,122,116,114,122,121,121,122,120,116,103,125,119,120
122,124,121,122,112,121,121,121,120,120,122,123,124,135,125,120,121,122,123,130,131,119,121,121,121,120,121,111,124,113,122,120,125,122,122,120,109,123,118,120,117,122,123,125,122,123,125,120,119,121,121,122,131,123,119,119,121,123,122,122,118,118,118,119,120,121,120,121,113,119,121,121,113,121,119,121,116,110,120,118,127,118,115,115,107,120,123,122,124,120,123,129,121,129,121,121,120,122,119,122,118,118,119,118,121,120,118,119,138,113,125,120,122,122,122,126,127,114,118,120,114,120,126,123,123,117,118,118
123,120,123,119,110,120,127,121,119,120,119,122,128,131,121,119,122,122,128,127,121,115,122,121,121,121,121,120,119,120,121,121,121,122,120,121,127,127,123,121,121,121,119,115,119,118,119,119,121,123,123,125,129,126,124,121,121,127,124,122,132,120,120,120,119,119,123,121,122,119,119,118,126,120,125,122,118,124,129,122,122,122,120,121,110,135,123,122,121,126,124,122,123,115,118,119,121,126,122,123,124,119,120,120,121,121,121,117,113,130,122,121,122,120,121,125,125,118,123,120,114,122,122,118,117,135,120,120
118,123,124,124,126,129,123,121,120,120,116,121,117,106,123,120,124,115,118,121,114,127,122,121,120,122,119,119,125,124,120,122,124,118,120,122,112,127,125,120,125,123,119,121,120,117,119,122,104,120,126,127,133,121,125,120,124,121,117,116,110,120,120,121,126,121,122,119,122,112,122,122,122,120,121,123,113,133,122,120,120,121,120,114,134,116,118,119,123,120,121,123,117,129,122,120,122,121,119,120,114,115,119,120,119,118,120,127,124,126,124,120,121,125,116,124,119,124,122,120,122,121,122,121,121,111,120,120
121,122,120,120,111,125,123,120,120,121,122,132,134,156,119,119,121,121,120,125,108,91,125,121,115,123,123,123,121,123,116,119,127,121,123,123,124,119,123,121,121,122,122,122,124,129,120,120,122,122,120,120,115,105,117,119,113,120,122,126,139,138,126,120,127,118,120,121,120,118,122,121,125,122,117,119,115,115,119,120,120,131,123,127,119,133,120,120,106,110,120,108,104,95,120,119,123,126,121,125,117,125,121,121,116,122,122,122,129,142,121,120,117,121,117,118,129,125,128,122,122,118,116,127,127,124,121,120
119,115,119,114,95,131,124,120,118,117,119,119,115,109,115,119,121,123,120,120,127,127,126,121,121,124,121,119,125,111,121,120,120,119,116,117,113,136,119,119,119,121,125,123,138,125,121,119,119,120,120,123,110,123,121,119,108,121,122,125,133,116,117,120,124,120,120,121,112,133,129,123,119,119,119,118,114,101,109,114,126,124,128,118,124,127,125,122,121,115,118,122,122,126,120,119,123,123,124,124,123,131,123,121,121,121,124,118,113,114,117,121,125,116,121,119,123,126,123,122,95,121,119,124,124,120,122,116
123,123,122,121,127,130,123,121,119,110,121,126,132,132,121,120,122,125,121,114,104,102,121,123,122,124,121,125,131,125,120,120,121,123,120,120,120,125,123,121,121,117,123,123,139,124,118,121,121,121,122,122,127,117,126,121,121,123,119,119,109,78,108,118,119,121,116,121,109,153,123,117,122,119,123,122,125,132,126,123,121,124,124,119,120,95,126,121,118,118,118,116,120,121,119,119,128,124,125,121,123,135,120,121,120,118,118,119,120,122,124,119,127,121,126,125,122,127,119,120,96,132,126,115,113,119,119,119
123,118,119,116,119,122,121,119,122,120,121,119,118,127,122,122,122,119,112,137,157,139,119,122,119,134,127,117,109,109,128,119,119,114,115,121,100,95,116,120,121,125,121,123,126,133,120,120,120,120,119,116,106,77,127,120,120,121,121,126,123,88,112,119,122,121,121,120,98,108,133,123,121,126,120,123,130,72,119,120,118,115,118,118,106,153,120,119,123,125,124,125,119,114,124,121,119,120,120,119,127,118,124,120,121,132,122,121,123,122,112,121,119,114,120,119,125,117,123,121,104,126,125,128,131,123,126,121
128,131,121,123,118,119,121,120,120,135,120,121,131,126,124,121,120,106,120,118,110,106,110,118,131,130,122,125,118,120,124,121,123,130,122,123,120,117,117,120,122,117,119,125,121,147,130,122,122,122,125,123,129,74,121,122,120,120,120,120,114,144,125,121,120,121,121,121,105,117,113,119,121,124,122,123,109,118,128,121,118,118,120,121,116,81,109,113,120,121,118,120,130,148,131,123,120,121,121,122,116,124,120,120,121,123,125,123,122,105,122,121,120,120,121,122,118,120,120,121,121,125,118,121,118,113,122,120
