0.0
0.8775214206349299
0.3481977575171322
0.1213282826669807
0.017393639928576808
-0.033257140482142955
-0.05789175092795516
0.3707213661945678
0.6596959494882894
0.4602550825885208
0.6903767782126156
0.4790825322966276
0.6835682483208781
0.836492038426593
0.57629427515436
0.3666738559693583
0.5741545159390852
0.7389556214069138
0.863732971045821
0.9533247278031686
0.6447818056170797
0.7675634881107777
0.49478561504473245
0.652010426025429
0.7789091325720643
0.876584466596109
0.5793591794487126
0.3456875717715304
0.5393897244832384
0.6982737652232294
0.8225529983840543
0.9151112448543456
0.6116029034639198
0.7400853368060417
0.8418496376804289
0.9186607030099114
0.9736154082858987
1.0104054575467425
0.6641184203537593
0.7614213015521984
0.8418062709721948
0.536437430219551
0.6697174176551697
0.7801015861058107
0.49857441956083726
0.2812281031724486
0.4903556327652772
0.6628746313586646
0.7985746218152461
0.9002481906191284
0.9723619138350722
1.0200842871670426
1.0486162736762286
1.0627660896781692
1.0667119670431224
1.432588726173068
1.3399692579007758
0.1484261080896616
-0.4058288694391874
-2.646379097342514
0.4655897828192357
1.1059801738384043
2.3186745566312554
-1.575066469252977
-0.9363256453958118
-5.172150317245084
-5.070616430503765
-3.7359364784155735
-2.2278086604745546
-0.2818679617937865
1.5760790180543194
1.0981882301640433
1.3671497258049332
-1.8103997675391237
-1.7274225569224804
-3.0919855186020273
-2.630309442817946
-1.8406240691962747
-1.5645239043668637
-3.1887951394421625
-0.3820356553457125
-0.39457664116182467
-2.6627157359903695
-0.38369388392645165
-10.763256167781982
-28.719551033134444
-20.470690098876048
-13.398201486777568
-10.948495817164575
-5.690602456833254
-3.5241397199661195
-1.666634894651935
7.3014130788037805
9.916484977437156
6.701674423265516
5.296561355819991
0.3017917038676341
4.072405744654761
2.579044371693972
0.24583212135166344
-0.8271378480703244
-1.597708559616644
-1.7474582943346357
1.535568731465521
4.859194301856071
5.891163553676456
5.076562363960712
3.21178555859565
-1.2496124014189904
-2.838531662419856
-1.353118915993667
-1.1755381872106128
0.13603251133678107
1.5602886246170808
5.971465519204956
13.001618843515065
10.123176572244013
7.212405914727562
5.1704192459303675
3.5499233506191503
2.324277269902664
1.4452893095294181
0.8549915837523276
0.4938502160749751
0.6747592665493156
0.5255806785717978
0.10041100862181214
0.19270367318310322
-0.053573057744440065
0.16389201489510224
-0.0010724209719850377
-0.10513152171558254
0.20621408159380566
0.46584129027198606
0.6721892219389916
0.8285057885420236
0.5721304073533555
0.3648183481532984
0.5736389576069376
0.37066060690808916
0.21306665901082647
0.09664617376168125
0.015469279043558113
0.33167836571195364
0.5844071617744188
0.7769793497418023
0.5475866856213596
0.359259313273425
0.2118206215533674
0.47059658179499875
0.30734298695994067
0.5485450283838482
0.3680033641526163
0.22478513594960187
0.48519543391533965
0.3218136634162822
0.19309872573293257
0.46518280157821
0.3107609558667168
0.5572670260244561
0.7480671481396041
0.8885392696261433
0.9860773864103739
0.6800744728704136
0.8015414378933075
0.15662119587537648
-0.3424254244271727
0.0276444254771101
0.33853335328326495
0.21867250653863443
0.4943143201884942
0.7085101597788266
0.8668953289796104
0.6087756343542422
0.39745071040943614
0.6011451307535913
0.3927450366576286
0.22997354387838342
0.10894106275280542
0.39256194710049563
-5.647787065786391
-2.541267843276323
-2.1930040579843153
2.17719926001335
2.6082408311241134
4.675466800413151
3.5844272490932005
2.2421511607938913
1.5058342124950623
0.9213407900307669
4.903372179093712
-0.4986370953775978
0.04953369743209057
-0.18679635050202031
0.047533489825358655
-0.09753869100207563
-12.348022317134227
-9.55618116501347
-10.352541380321506
-5.954906232264404
-3.1250218581473286
-0.9312671470852525
-0.41947401478987595
0.5948747459342092
1.2674363557724166
1.6707844985749127
1.503440071158884
0.9096507407200589
2.9638556351515377
3.0271958118022257
3.7229398090523396
3.078127554946715
2.1372442998682883
-0.10130863990684968
0.3878084233001583
-2.8621710679460843
-6.428214042160592
-9.04275827305924
-6.055947275238892
-3.8989315054114035
-2.147932036080598
0.6823628264519679
2.0748531530822607
2.2900865874815652
1.9547759616729328
1.9564588377458396
2.250211871058895
2.7844678301656507
1.295444661337616
1.1996223981033438
0.38589486387764216
1.2368060435461459
1.9140929588762017
4.271385936846709
4.581090130897741
1.0435770840306082
0.09407884400079725
0.14508985338001784
0.6139071931885938
0.6513240726740214
0.33396370668163333
0.4757608744850408
0.6069329226911446
1.0896611678373977
0.7293727517225705
1.1813378162734727
1.1630302800257435
0.769832580543731
0.8291205285689802
0.8801270945748194
0.9218527709951696
0.954403970422349
0.9785768329687922
0.9955396756739027
0.6379166582440849
0.730144803703928
0.8098111091866251
0.5065307576501373
0.27481918426174223
0.10670066332722057
0.3607734966391728
0.20327677422311832
0.08769552651875649
0.37644591870909433
0.23959635843462454
0.5028504543668513
0.7085475172171474
0.8615643238888746
0.9691653735514377
0.6708590757603623
0.7979172315373972
0.5255010359396182
0.6804534279377291
0.4349803622762464
0.24544837578156517
0.1062920713825092
0.3786816138759415
0.6000118759424498
0.7715218623860696
0.5292659676902846
0.7029598275795975
0.8362165447096074
0.5646705042941023
0.7170600172005928
0.4670603850441182
-0.09656450004996481
0.2132012640785791
0.10258964146858537
0.02460772165504692
-0.02657854628024131
-0.42546762275815087
0.014431196658995171
0.3704539707861786
0.6452367681518452
0.8468987178089635
0.9863753726518985
1.0755114454487833
0.7570982006158735
0.8646104136149122
0.9432417615419514
0.6287062609677523
0.38018167223401933
0.561763549929606
3.2920228883482334
2.8089425312241167
-1.6953118838363577
-4.83007425519372
-4.190924913096538
3.1024677724767535
-5.198960469625635
-1.7407117255159248
5.113117503052681
-17.266962543730912
-12.511090373083563
-8.35566071687877
-3.066037920390528
-0.7702583837025769
-0.5755348608230899
1.6463332649212088
12.821883770273677
13.499641527964782
17.99423460623169
13.696830914287201
14.030540314658785
9.286956787275862
5.843601008507742
-7.855130163545409
-5.35883308942217
-2.222450245446537
-4.671244685034405
-2.7153711436016468
0.07957376286668216
1.2084108981078465
2.800785000941525
1.7686940551106711
1.634506182833179
1.4993766903697603
7.642056397767163
2.019791255816508
5.626440991074141
5.460290848839537
3.0272524753306054
1.0918003766605522
0.7303220169535021
-7.956241538170185
-5.707567653655232
-3.6755422661102357
-3.047804001396197
-1.3827365779125051
-0.4314667840753428
-0.45455214335722544
-4.568014121098716
-2.962487626475545
-5.689605459641816
-6.279010670095853
-2.5733922208752995
-1.4756701400638073
-0.6654133961322468
4.691905139611648
1.3604497833137392
-6.5686333511735215
-1.6604314645960399
-6.194573687561934
-5.252986492434083
-3.2940238570895817
-1.7161211368954212
-0.5041594245997698
0.3804819883391727
0.6195059129107385
-0.01619058240122717
-0.20645228495965007
-0.020932351575337932
0.0978521113450267
0.5337537960772505
0.845990216130433
0.6866599466676893
0.9002001124719445
1.0429405722742648
0.7609564388825563
0.5224740033214165
0.6990897569433454
0.4658123142831858
0.6502161200862765
0.4257386486970064
0.25019577142483007
0.4881800667718247
0.31040330857573717
0.17350723040901733
0.0732967984921745
0.3728950520090251
0.2431760303365272
0.5106473093224053
0.34970094777485217
0.5889940147462525
0.40403330435368157
0.2551625037309646
0.14090432499961145
0.42626227026763464
0.2833128409567707
0.17055621297814277
0.08581982078015203
0.394192027844123
0.26831996675992453
0.5362220669002531
0.7422019286445993
0.8927232503859682
0.9962731258308888
0.6932554129141675
0.4468733923000606
0.6245088951851309
0.3978010754016583
0.22306993554123816
0.46372198197910147
0.6582590237266744
0.4395397521902677
0.6352218240823588
0.4190558522850576
0.24929112194060782
0.12230883101645476
0.401111379459739
0.25602180862483737
0.5127687846214976
0.713569750003683
0.8630965404394738
0.9683725523474495
0.6686614201516181
0.7950072999877487
1.2597452217774605
1.2432714852522344
1.2135421922804783
0.4404340556373397
0.9439691038958931
3.1891963291992695
-3.5703572142480215
6.65946767895878
19.078638737265514
8.882059933655338
-3.50828434575371
-14.59230867209585
-9.910007097591397
-6.506700116105075
1.190133255077236
3.1704222164129567
7.884151953403678
4.709577218081616
2.7507755831146676
-14.716827237556506
-13.03438369007651
-7.56754188706876
1.3859982289699406
0.6161485048491828
-1.6319353284357319
-2.37164354252545
-0.018522643025152608
2.5237001528593597
4.036164253300544
3.592840234772567
3.10694892844592
3.3701635036092736
4.244295616948785
5.59356446549628
5.082379924636788
4.225519804019857
2.401684157441869
1.3486763227519427
7.581778108565926
6.893764097914056
-1.5129254017929297
0.4290714748004074
-6.01337809231497
-6.818525223780087
-6.076275400589235
3.564669511482336
5.585619725767027
7.342539535975511
9.978690943871097
4.061121028512315
1.4996210706806226
0.6310513652380556
-15.820939362962168
-10.301197653838193
-7.733410991690575
-3.6544404992411526
-3.3411800571867607
1.67661585703129
12.142109002893676
11.160640118489084
9.972074887684178
9.853263510515983
7.708118043042434
11.430612669943033
8.32421102212921
5.412463746200082
3.144189095060063
1.8310601581378818
0.19865918357267198
-0.5584514128401166
-1.360740104168463
-1.469886970558351
-1.053316354997648
-0.6271828447540305
-0.22887069353189282
0.12022945982169642
0.04183727461140336
-0.01097697797058647
-0.0434471612183952
-0.060493927953097305
-0.4351355140233507
0.020839243289534348
0.3865018244690852
0.29740898913265584
0.5862190431640228
0.06405328290166568
0.018544545723611666
0.35702708321028453
0.253117036621722
0.5360920102878572
0.751597917437101
0.538700312791395
0.36149256665173557
0.22089640370978875
0.11458473882268047
0.03836436779098706
-0.012802848034387755
0.32459812937651156
0.22258192979007355
0.5091786896516985
0.36042319596061645
0.6065605860267633
0.4245250342952913
0.6445590396758589
0.44302488656354166
0.28059295830957964
0.5244391593865828
0.3474821273011013
0.576843735376945
0.3865785623237757
0.23574585262404738
0.121791848704034
0.040174121521566256
0.3541419751197084
0.60367099826274
0.4240062239207705
0.6455781557827058
0.8136202314224312
0.9345163493602595
1.0160427462252601
1.0662367979421719
0.7239758407171013
0.45037812255868875
0.24186722439259337
0.4597001029237091
0.640150650508601
0.7826634762316111
0.8899023054533772
1.7037240664170052
3.0578694114955325
5.541817565848772
4.066562252017697
2.812103615311229
1.7967102756910718
2.856351913961171
4.8017011750052845
4.071830743684165
3.4464356986125413
2.5680020296270367
1.1514762356005888
1.1923168589504243
2.3883336385791436
2.244847173533241
-0.4459962147940617
-0.29448432724810125
0.27270707234376956
-0.3380335913400727
0.6985459009227499
-0.6763023696868384
-1.7288929151317085
0.8237727064190117
-4.895828106127778
-3.7792257162996976
-3.511392562615774
-2.4848451654437813
-1.6393377189661607
-6.505597615158381
-4.353678473283947
-6.625313716867146
-4.272015566051369
-2.736143138988612
-1.9178111626101673
-0.9595757593544875
-0.6470715655079019
0.6282334654952615
1.173658784761819
-0.33923627932741995
1.364275728656767
1.5430894869395286
1.6128257521083715
1.2394726989459388
1.6426597590116496
1.1882172595887215
0.43822508784617353
0.5878427869821606
0.7150465472159342
0.4493067848359567
-0.12284444350112927
0.5523128915729819
1.4622616076200154
1.7902198116188526
-0.5668715613447453
-0.9324258468180867
-1.1685744008109669
-2.041636676894086
-1.5629009956934916
-1.8738604808503283
-0.974137048355505
-0.6179600407668872
-0.3440004413370429
-0.14371334805893557
0.362835709231223
0.7332531239465558
0.9882971570486019
0.7815535156384033
0.588934888372769
0.42053813782709276
0.6494992852651387
0.8218947196808621
0.9448817211518205
0.6582182494244162
0.42494477217292514
0.6125982222605602
0.39316123542592224
0.5920752205585346
0.381377824170583
0.5867454864962129
0.3805458603722495
0.22013284182391138
0.47005748208687287
0.6699450506953072
0.4536751239075516
0.649780371197302
0.06403851399230509
-0.021605511422487574
-0.07395708758847376
-0.10113107637386173
0.25843529590772957
0.1756693986408158
0.1094602964932022
0.05896438703100219
0.39108688558714977
0.6491417178330773
0.8399328049877199
0.6044137248358707
0.40770345531075614
0.6198096729419327
0.7839233547060372
0.5360127077531949
0.7056005810755741
0.4673690220478139
0.2798352488481476
0.13920822622613477
0.4080539227535285
0.25612683325504093
0.5085488452103405
0.3382684090383327
0.20389083316239845
0.10285622945201933
0.03089923116670857
-0.016983314674290168
0.3228234799659413
0.2224671109996028
0.5101208676459194
0.36195780952749596
0.6083472791855816
0.7950151954060636
0.9291483297150739
0.6507716650606705
0.4233214329755022
0.6147801604057247
0.39757213088661914
0.228856529717768
0.10416020410691335
-0.35152466008469885
0.7840156206682698
0.20222421216987918
-0.2605917091235999
1.6005941145579383
0.4648828746630447
-0.44795509364258684
3.2766751269694447
2.4754258401476568
2.8789594611226996
-2.386961256550653
-2.050980160386499
-0.9385369640389105
-0.37144041430618835
1.9389750012164275
3.351555408506408
4.74300065745539
2.034451433299698
2.057156042579677
-1.2512281733000723
-0.47845000712702235
0.2063413154242183
1.1498613587172812
4.10463946412699
2.303444325046505
1.9304527491814958
1.9897349840788516
4.977466591668513
5.419297735837538
4.190171232591189
3.160730958255317
2.339149774853056
2.451444403344123
0.7224917212913944
-0.21664979058640516
0.9716474517390181
-0.6183497121808343
0.032060097082198036
-3.4565132878661835
-7.942788077440194
-5.3573315447176375
-7.196067928907219
-4.075983831632051
-4.8621844798433616
-2.4994388375516343
-5.443222824096864
-3.687639973018323
-18.877197079907837
-10.633107048799076
-8.661468257056047
-9.258485250860193
-3.057954307825643
-0.8456655794074373
1.4350030297774787
2.2617950448960173
4.895621669581748
-4.334992222393209
-10.170693081359452
-7.182660080475383
-4.646118556648909
-0.7527198953997307
0.029657392506899503
0.5212264660869363
0.7901465818891389
2.003197108638314
2.8482137637357217
2.656372000369354
2.4036522096479582
2.1325792002700843
2.2401440154561367
1.9202841659931846
1.2765445580001988
1.137401035960715
0.6699542998950518
0.6903036670664091
0.3590712130286561
0.4901158181956571
0.2446727617002872
0.07028065881469299
-0.4140859231412593
-0.3977408495502802
0.012866907858848253
-0.01816416491876862
-0.036311268330629545
0.3238036262570338
0.604876450269916
0.44502993042697186
0.30875666537727375
0.19819314594708015
0.4813316825699704
0.7012918449092087
0.8638896431259996
0.6086682564863327
0.3991816058477483
0.6038990246013557
0.7646122409023337
0.5160892028968993
0.6868734924554559
0.8195715017572258
0.5489952775158871
0.3345562389634896
0.5412819721522357
0.33955202978583066
0.18521795902875748
0.07306820439725764
0.3651471627834394
0.23129671748934122
0.12841735709021662
0.0532647727688986
0.0015877498980960496
0.33752347054223253
0.2335552480256264
0.1493614924734181
0.4530275539385576
0.31950964704316037
0.5785175309291015
0.775521755237786
