121,122,121,122,121,121,122,122,120,126,120,121,121,121,121,118,120,115,120,122,122,120,121,120,120,124,121,122,122,120,120,119,121,123,121,123,121,121,122,121,120,120,120,121,121,121,121,121,120,122,120,121,121,121,121,120,120,121,121,122,121,121,121,120,122,122,121,122,121,121,122,122,120,123,121,122,120,120,122,122,120,119,120,121,121,121,122,119,121,123,121,122,122,121,121,118,122,120,122,122,122,121,121,121,120,122,121,122,121,120,121,119,120,122,120,122,121,121,122,120,119,118,119,122,121,121,121,121
121,123,121,122,121,121,122,120,121,123,121,122,122,121,121,120,120,119,121,122,121,121,121,121,120,121,120,122,121,121,120,119,121,123,122,122,121,120,121,121,121,122,121,122,122,121,121,120,120,122,121,122,120,120,121,120,120,121,121,122,121,122,122,120,121,123,121,122,121,121,120,119,121,121,121,121,120,121,121,121,119,122,121,122,122,122,121,119,121,122,120,122,121,121,122,121,119,121,121,122,121,121,120,119,120,121,121,122,122,121,121,119,120,121,121,122,122,122,121,120,121,121,120,121,121,121,121,122
120,122,122,122,122,121,122,120,120,123,121,122,121,120,121,120,118,117,120,121,121,120,120,118,121,122,121,122,121,120,121,121,122,124,122,123,121,120,121,120,121,125,121,123,122,121,121,122,119,114,121,122,121,120,121,118,121,125,120,121,121,121,122,122,121,120,121,121,121,121,121,121,121,123,121,122,121,121,121,119,121,121,121,122,122,121,121,119,121,122,122,122,121,122,122,120,120,121,121,122,122,122,121,120,120,120,121,122,120,121,121,121,121,121,120,122,121,121,121,120,121,122,121,122,121,121,121,120
119,121,121,122,121,121,122,120,121,122,121,121,120,121,121,120,120,122,121,122,121,120,120,117,122,125,121,121,121,122,122,121,118,115,119,121,121,121,121,121,120,121,119,120,121,121,121,119,121,122,122,122,121,122,122,121,121,123,121,122,122,120,121,120,120,122,121,122,121,121,121,120,120,122,121,122,122,121,121,120,121,122,121,121,120,121,121,121,120,121,121,122,121,121,122,121,119,119,120,122,121,121,120,119,119,119,119,121,121,121,122,119,121,122,121,122,122,121,122,121,121,121,120,121,121,121,121,122
121,121,120,121,121,121,121,118,121,122,121,122,121,121,121,120,120,121,120,121,121,121,121,121,120,122,121,122,121,121,122,121,120,121,121,121,120,121,121,121,120,118,120,122,121,121,121,120,122,123,121,122,121,122,122,121,122,124,121,121,121,121,122,123,120,119,119,121,121,121,121,120,120,121,120,121,121,121,121,120,121,122,122,123,121,121,122,121,122,126,122,122,121,120,121,120,120,117,121,122,120,121,121,121,120,124,121,121,120,120,121,121,120,122,121,122,122,121,120,118,120,121,121,122,121,120,121,121
121,122,121,122,121,121,121,119,120,121,121,121,121,121,121,119,121,122,120,122,121,121,122,120,121,122,121,121,121,121,122,122,121,122,122,122,120,121,121,120,120,121,120,122,121,121,122,120,121,122,120,121,121,121,121,120,122,122,121,122,121,121,122,122,118,120,121,121,120,121,120,117,122,123,122,122,120,120,121,121,121,122,120,121,120,121,121,121,121,120,121,122,121,122,121,120,120,122,121,122,121,121,122,122,120,122,120,122,121,121,122,120,120,119,121,122,122,122,121,120,119,122,120,122,121,121,121,119
121,123,122,122,121,121,122,121,120,121,121,122,122,121,121,119,120,121,121,122,121,120,120,120,119,120,120,122,121,121,122,120,122,123,121,122,121,122,122,122,119,121,121,122,122,120,120,119,121,121,121,122,122,121,121,120,119,120,120,121,121,121,122,120,120,121,121,122,121,121,121,120,122,123,121,122,121,121,121,121,119,118,121,122,121,121,122,122,118,123,120,121,119,120,120,115,121,119,121,122,121,121,122,121,121,124,122,123,122,122,121,121,121,123,120,122,121,121,122,121,121,119,120,122,121,121,121,121
121,123,121,121,121,121,121,120,121,122,121,122,122,121,121,119,120,121,121,122,122,121,120,119,121,122,122,122,120,120,121,120,119,119,120,122,121,121,121,120,120,122,121,122,122,121,121,120,119,121,122,122,122,121,120,118,120,122,121,122,122,121,121,120,120,122,121,122,120,120,121,121,120,122,121,122,122,122,121,120,119,122,121,122,121,120,121,119,120,116,120,121,121,120,121,120,122,126,120,121,121,121,121,120,120,120,121,121,121,121,121,121,121,121,121,122,122,121,120,120,121,123,122,122,122,121,121,120
120,121,121,122,121,121,121,120,120,121,121,122,121,121,122,121,120,121,121,122,122,121,122,121,119,121,121,122,121,121,121,117,120,120,120,122,121,121,122,122,120,121,120,121,121,121,121,121,119,121,121,121,122,122,121,120,121,123,121,122,120,121,122,120,120,122,121,122,121,121,122,120,119,119,120,122,120,120,121,119,122,122,121,121,120,121,121,121,121,122,122,122,121,121,121,121,120,123,121,121,121,121,121,120,120,120,121,121,121,121,121,121,121,123,121,121,120,121,121,119,121,121,120,121,121,121,121,120
120,122,121,122,121,121,122,120,118,116,120,122,121,121,121,121,121,123,121,122,120,120,121,121,121,123,121,121,120,121,121,121,121,123,121,122,122,121,122,120,120,119,120,122,121,121,121,120,122,122,120,122,121,121,122,120,120,122,121,121,122,121,122,122,121,121,122,121,120,121,121,120,121,122,121,122,122,121,120,120,120,122,121,122,122,121,121,119,120,119,120,122,121,122,122,121,120,121,120,122,121,121,121,120,120,121,121,122,122,121,121,120,122,122,122,122,121,121,122,121,120,124,121,121,121,121,121,120
119,116,119,121,121,121,121,121,121,122,121,122,121,121,122,121,121,122,121,123,122,121,122,121,120,122,121,122,121,121,121,120,119,120,120,121,121,121,121,120,119,121,121,122,121,121,121,119,121,121,121,122,122,121,122,120,120,122,121,122,121,121,121,119,118,118,120,121,121,121,121,120,120,123,121,122,122,121,121,118,121,120,121,122,121,121,121,121,121,124,121,122,121,121,122,122,119,118,120,121,121,121,121,118,121,125,122,122,122,121,120,119,119,117,120,122,121,122,122,121,121,124,122,121,121,121,122,121
121,123,121,121,121,121,121,121,120,122,121,121,121,121,122,121,120,121,121,122,122,121,121,119,121,121,121,122,121,122,121,121,119,121,121,122,122,121,121,118,121,122,120,121,121,121,121,120,121,121,121,122,122,121,121,121,121,122,121,122,121,121,121,120,121,122,121,121,121,121,122,121,119,120,120,122,121,121,121,121,120,121,120,122,121,121,122,121,121,122,121,121,121,121,121,122,121,122,122,122,121,121,122,121,121,123,121,122,121,120,121,121,120,120,121,121,121,121,121,120,122,122,121,122,120,121,121,119
120,121,121,122,121,121,120,120,122,125,122,122,121,121,122,121,118,115,120,122,122,121,121,119,120,122,121,121,121,121,121,120,122,125,122,122,122,121,121,121,121,121,120,122,122,122,122,121,121,122,121,122,122,121,121,120,120,122,121,121,120,121,122,121,119,119,120,122,121,121,121,120,120,121,120,121,121,121,121,121,121,121,120,121,122,122,122,121,120,122,122,122,121,121,122,119,119,120,121,122,121,121,121,120,121,120,120,122,121,121,121,120,121,123,122,122,121,121,122,121,119,121,121,122,121,121,122,119
119,120,121,122,121,120,120,120,122,123,121,121,121,121,121,121,121,123,122,122,121,120,120,120,119,115,120,121,121,121,122,122,121,121,119,121,121,121,122,121,121,121,121,121,121,121,122,120,121,124,121,122,122,121,121,121,120,120,121,122,121,120,120,119,120,120,121,121,121,121,122,122,119,122,122,122,121,120,120,118,121,122,121,122,122,121,121,120,120,120,120,122,121,121,121,120,121,122,120,121,120,121,121,120,121,122,121,122,121,121,121,120,120,122,121,121,121,121,121,120,121,120,121,121,121,121,122,122
121,123,121,121,120,121,121,120,120,120,121,122,121,122,122,120,121,122,120,122,121,121,122,119,119,120,121,122,121,121,120,120,120,121,120,122,121,121,121,120,121,120,120,122,121,121,122,120,120,123,121,121,121,121,121,120,120,121,120,122,121,121,121,121,122,123,122,122,121,120,121,122,119,121,121,121,121,121,121,117,121,121,120,121,121,121,121,120,120,121,121,122,121,121,121,121,120,122,121,122,122,122,121,120,121,122,121,121,121,121,122,120,120,121,120,122,121,121,122,120,121,121,121,121,121,121,121,121
122,127,122,122,121,121,121,120,117,110,118,121,121,121,122,120,123,127,122,122,122,121,120,120,119,119,120,122,121,121,121,120,120,121,121,121,120,120,121,120,122,124,122,122,120,120,122,120,122,122,122,122,121,121,121,121,121,122,120,121,120,121,122,120,120,121,121,122,121,121,121,119,121,122,122,121,121,121,122,122,120,122,121,123,121,120,121,121,120,120,121,122,121,120,120,120,122,121,120,121,120,121,121,120,120,121,121,122,122,121,121,119,121,123,122,122,121,121,122,123,119,119,121,122,120,120,121,120
121,122,120,122,121,121,122,119,120,121,121,122,122,122,121,120,121,122,121,122,121,122,121,119,121,121,121,122,121,122,121,121,120,125,120,121,121,121,122,120,120,115,120,122,122,121,122,119,122,126,121,121,121,121,121,120,120,120,121,122,121,121,121,120,120,122,121,123,121,120,121,120,121,122,121,122,122,121,120,119,120,121,121,122,121,121,121,119,120,120,121,122,121,122,121,121,121,122,121,121,121,121,122,121,120,122,121,122,122,121,120,119,121,121,121,122,122,121,121,119,120,122,121,122,121,121,122,122
121,122,122,121,120,121,121,120,121,123,121,121,121,121,121,119,121,122,121,121,122,121,122,121,120,120,120,121,121,121,122,121,119,119,121,122,121,121,120,118,120,123,121,122,122,121,121,120,121,121,121,122,121,121,122,121,120,119,120,121,120,120,121,121,121,121,121,122,121,120,120,120,121,123,121,121,120,121,121,120,121,122,122,122,122,122,122,120,122,122,121,122,121,121,121,121,121,121,120,121,121,121,122,120,120,119,120,122,121,122,122,121,120,122,121,121,121,121,121,120,120,121,121,122,121,121,121,119
123,123,121,122,121,122,122,122,120,122,121,122,121,121,122,120,119,118,118,121,121,121,121,119,122,124,122,122,122,121,121,120,120,119,120,122,121,121,121,120,121,123,121,122,121,120,121,121,120,121,121,122,121,121,122,121,120,123,121,122,121,121,122,121,120,120,120,121,121,121,121,121,121,124,122,122,121,122,122,120,120,121,120,122,121,121,122,121,120,122,121,122,120,121,121,119,121,121,120,121,121,120,121,121,122,122,121,121,121,121,121,120,120,124,120,121,121,121,121,121,120,118,120,121,121,121,121,120
120,122,121,122,121,121,121,119,120,120,121,122,122,121,121,119,120,121,121,122,120,120,121,120,121,122,121,122,120,121,121,122,120,121,121,122,121,121,121,120,121,122,121,122,122,121,121,119,121,121,122,122,121,121,121,122,119,122,120,121,121,121,122,121,117,117,119,121,120,121,121,118,121,123,122,122,122,122,122,121,121,122,122,122,121,121,121,121,121,124,121,122,121,121,121,121,120,119,122,122,120,120,121,119,121,123,121,121,121,121,121,120,120,122,121,122,121,122,122,120,121,122,121,123,121,121,122,121
121,122,121,121,120,121,121,122,120,122,121,122,121,120,120,121,121,122,122,122,121,121,121,120,122,122,121,122,121,122,122,121,121,121,120,121,121,121,121,121,121,121,120,121,121,121,122,120,122,122,121,122,122,121,121,120,119,121,122,122,121,121,121,118,120,117,119,120,121,121,122,120,121,123,121,121,120,120,120,119,120,121,121,122,122,121,121,120,122,123,121,121,121,121,121,121,120,122,121,122,121,121,121,119,119,118,120,122,121,121,121,120,122,122,121,122,121,122,122,121,120,120,120,122,121,121,122,120
121,122,122,122,121,121,122,121,121,122,121,122,122,121,121,121,121,121,120,121,121,121,121,121,121,121,120,121,121,121,121,120,121,121,121,122,121,121,122,120,119,121,121,122,121,121,121,118,120,121,121,122,121,120,121,120,121,121,122,122,121,120,121,121,122,123,121,121,121,121,121,121,121,127,122,122,121,120,121,120,117,111,118,121,122,121,120,119,122,126,122,122,121,121,120,120,121,123,122,122,120,121,122,121,120,122,121,122,122,121,121,120,120,122,121,122,122,120,121,120,121,120,121,122,121,121,121,121
122,121,120,122,121,122,122,121,120,121,121,122,122,121,121,120,121,121,121,122,122,122,121,120,120,122,121,122,121,121,121,120,121,122,121,121,120,121,121,120,120,121,120,122,121,121,120,119,121,121,121,123,121,121,122,121,121,121,120,122,121,121,122,121,121,122,121,122,121,122,122,121,121,122,120,122,121,121,121,121,121,122,121,121,121,121,121,120,120,122,121,122,121,122,121,120,120,120,120,121,121,121,122,121,120,121,121,122,121,121,121,120,121,122,121,122,122,121,120,120,121,122,122,122,121,121,122,120
121,121,121,122,122,121,121,120,120,122,120,121,121,121,121,121,119,117,121,122,120,121,121,120,121,123,122,122,121,121,122,121,121,125,121,122,121,121,121,120,120,118,120,122,121,121,121,120,120,121,120,121,121,121,122,121,120,122,121,122,121,121,121,117,120,122,121,122,121,121,120,119,121,119,120,122,121,121,121,120,121,121,120,121,121,121,122,121,120,121,121,122,121,122,122,120,121,123,122,123,121,121,121,120,119,119,120,122,121,121,120,120,122,121,120,121,121,121,122,121,120,121,120,121,121,121,121,119
121,122,121,122,121,121,122,121,120,122,121,121,120,120,121,119,121,122,121,122,121,121,121,120,121,122,121,122,121,121,120,120,121,122,121,122,121,122,121,120,121,121,122,122,122,121,121,122,121,125,121,122,122,121,121,119,120,115,119,121,121,121,122,122,121,124,121,121,121,121,122,121,122,124,122,122,122,122,122,120,120,121,120,121,121,121,122,121,119,121,121,122,121,121,121,120,120,121,120,121,121,121,121,120,121,122,121,123,121,121,120,120,121,123,121,121,120,121,121,121,119,121,120,122,121,121,121,119
121,122,122,122,122,121,121,121,121,121,120,121,121,121,121,120,121,121,121,122,122,121,121,121,121,122,121,121,120,121,121,121,120,121,120,121,121,121,121,120,120,123,121,122,122,121,121,119,121,120,121,121,121,121,121,120,122,121,121,121,121,121,122,121,121,124,122,122,122,121,121,121,120,119,120,122,121,121,122,121,119,118,121,122,121,121,121,119,122,122,120,122,121,121,122,121,120,121,120,121,121,121,121,120,121,123,121,121,121,121,121,121,120,121,121,122,121,121,122,120,121,121,121,122,121,121,122,122
120,121,121,122,121,121,120,119,120,122,121,122,121,121,121,120,120,120,119,121,121,121,121,120,120,120,121,122,121,121,122,121,121,122,121,122,121,121,121,120,120,127,122,121,120,121,121,120,119,113,120,122,121,121,120,118,119,120,120,122,121,121,121,120,122,124,122,123,122,122,121,121,120,120,120,121,121,121,122,121,121,123,120,122,122,122,122,119,120,121,121,122,121,121,121,120,120,121,120,122,121,121,122,120,120,121,120,121,121,121,121,121,120,122,122,121,121,120,120,120,121,122,121,122,120,121,121,120
121,123,122,121,120,121,121,121,121,121,120,122,121,121,122,123,120,122,121,122,122,121,121,120,121,122,121,122,122,121,122,121,121,122,121,121,120,121,121,121,121,123,122,121,121,121,121,119,120,121,121,121,120,120,121,120,121,121,121,122,121,121,121,120,121,122,121,123,121,120,121,120,120,120,120,122,121,122,122,120,121,122,122,122,121,121,122,121,122,124,123,122,122,121,121,121,118,116,119,121,121,121,121,121,118,116,119,121,121,120,120,119,122,123,122,122,122,121,121,120,121,123,121,122,121,121,122,121
120,121,121,122,121,121,122,120,121,121,121,122,122,121,121,120,120,121,121,121,120,121,121,119,121,122,122,122,121,121,122,120,121,122,122,122,121,120,121,121,120,121,121,122,121,121,120,117,121,122,121,121,121,120,122,121,120,122,121,122,122,121,122,121,120,121,121,122,121,121,121,120,121,122,122,122,121,121,121,121,120,121,121,122,122,121,121,120,120,121,121,122,121,121,121,120,120,121,121,122,121,121,122,120,120,122,121,122,122,121,122,119,121,119,120,121,121,121,121,120,120,122,120,122,121,121,120,120
121,122,122,122,121,120,121,121,121,121,120,121,121,122,122,120,120,125,120,122,121,121,122,120,119,114,120,121,121,121,121,120,122,125,122,121,121,121,122,120,119,121,120,121,121,121,121,118,120,119,119,121,121,121,122,121,121,123,121,122,122,121,121,121,120,120,121,122,121,121,120,119,121,121,121,122,122,121,122,121,121,121,121,122,121,121,122,121,120,122,121,122,122,121,121,120,121,121,121,122,121,121,122,121,120,121,122,122,121,120,120,119,121,123,122,121,120,121,121,121,119,118,120,121,121,121,122,121
121,123,122,122,122,121,122,120,119,119,120,122,121,120,120,119,120,119,119,121,121,121,122,120,122,125,121,121,121,121,121,120,121,122,121,121,120,121,121,121,121,122,121,122,121,120,121,119,121,121,122,123,121,121,122,121,121,121,121,122,121,120,120,121,121,123,120,121,121,121,121,120,118,119,120,122,122,121,121,119,123,123,122,122,121,121,122,122,120,121,121,122,122,122,121,119,121,124,121,122,121,121,123,122,119,116,119,121,120,120,121,121,121,123,121,122,121,121,121,120,120,123,122,122,122,120,120,120
121,121,120,121,120,120,121,120,120,121,120,122,122,122,121,120,120,124,121,122,122,121,121,120,120,117,121,122,121,121,122,121,119,123,121,121,121,121,122,121,122,123,122,121,121,121,121,121,119,122,120,121,121,121,121,119,120,119,121,121,121,121,122,120,120,122,121,122,122,122,122,120,121,122,120,121,121,121,122,120,120,121,121,122,122,121,120,120,120,122,121,121,120,121,121,121,121,121,121,122,122,121,120,120,120,120,121,121,121,121,121,120,121,121,120,121,121,121,121,121,121,121,121,122,121,122,122,121
120,122,121,122,121,121,122,120,119,118,119,121,121,121,121,119,121,124,121,122,121,121,122,121,121,119,121,122,121,120,121,120,121,122,121,122,121,121,122,121,120,122,121,122,122,121,120,120,121,122,121,123,121,121,121,120,120,121,121,122,121,122,121,120,120,124,121,121,121,121,122,120,120,118,120,121,122,121,122,121,121,124,122,122,121,120,120,120,120,121,121,122,121,121,121,120,120,120,120,122,121,122,121,121,121,122,121,122,121,121,121,121,120,120,121,121,121,121,121,119,121,121,121,122,122,121,121,121
120,121,120,121,121,121,121,121,121,122,120,122,121,121,121,120,120,120,121,122,122,121,121,119,121,123,121,121,122,121,121,120,118,119,121,122,121,121,122,120,121,120,120,121,120,121,121,121,121,123,121,122,121,121,122,122,120,122,120,122,121,121,122,120,120,119,119,121,121,121,122,121,120,122,121,122,122,121,120,119,121,122,121,122,122,121,121,120,120,122,121,122,121,121,122,121,120,121,121,122,121,121,122,120,120,122,121,121,120,121,121,119,120,120,120,122,121,121,122,122,121,122,120,121,121,121,121,121
121,124,122,122,121,121,121,121,119,116,119,121,120,121,121,119,121,121,121,121,121,121,121,121,121,123,122,122,121,121,121,121,121,122,120,121,121,121,121,121,120,121,121,122,121,121,121,120,121,122,121,121,121,121,122,121,120,122,121,122,122,121,121,119,118,119,120,122,121,121,121,120,121,120,121,121,121,121,121,119,121,123,121,123,121,121,121,120,120,121,121,121,120,120,121,120,121,122,120,121,121,121,121,120,120,121,121,122,120,121,121,120,120,121,121,122,121,121,122,120,121,121,121,122,121,121,121,120
121,122,121,122,122,121,121,119,120,121,120,121,121,121,121,121,120,121,121,122,122,121,121,120,122,123,122,122,122,121,121,119,119,120,121,122,121,121,122,120,120,119,120,122,121,121,120,119,121,122,121,122,122,121,121,121,120,123,122,121,121,122,122,122,120,120,120,121,121,121,121,120,122,122,122,122,121,121,122,121,120,122,121,122,121,122,121,119,120,120,120,121,121,121,121,121,121,122,120,121,121,121,122,121,121,122,122,122,122,121,122,120,120,123,121,122,122,121,121,120,120,120,120,121,121,121,122,121
120,123,121,122,121,121,121,121,120,118,120,121,121,121,121,119,120,123,121,122,122,122,121,119,120,121,121,122,122,122,122,121,120,122,122,122,121,121,121,119,120,121,121,121,120,120,121,120,121,120,121,122,122,122,122,120,121,122,122,122,121,121,121,120,120,122,121,122,121,121,121,120,121,121,121,122,121,122,122,120,120,119,121,122,121,121,121,120,122,123,121,122,121,121,121,120,121,122,122,122,120,121,122,121,121,122,121,121,120,121,121,121,121,122,121,122,122,122,121,120,119,121,121,122,121,121,120,116
121,122,121,121,121,121,122,122,121,122,121,121,122,121,122,122,121,120,120,121,121,121,121,121,121,122,121,122,122,121,121,120,121,121,121,122,121,121,122,120,121,122,121,122,121,121,121,120,120,120,120,121,121,121,121,120,121,121,121,122,122,122,122,121,119,119,121,122,121,121,120,118,120,121,121,122,121,122,122,122,121,126,121,122,121,121,122,120,120,116,120,122,121,120,120,119,120,125,121,121,120,121,121,120,121,121,120,122,121,121,122,121,121,122,121,122,121,120,121,121,119,121,121,122,121,121,122,119
121,122,122,122,121,121,122,121,120,122,121,121,121,121,122,120,120,119,120,121,121,121,122,119,121,124,121,122,121,120,121,122,120,119,121,122,121,122,121,122,120,124,121,122,122,121,121,119,119,117,119,121,121,121,121,120,121,124,121,122,121,122,122,120,122,124,122,121,120,121,121,120,119,122,120,122,121,121,121,119,119,115,119,121,120,120,121,120,121,125,121,122,121,121,122,121,120,121,121,122,121,121,122,120,120,120,120,122,121,121,121,120,121,122,121,121,120,121,123,121,121,122,121,121,120,121,119,120
120,121,121,121,121,121,122,120,119,120,120,122,121,121,122,120,120,121,120,122,122,122,121,119,121,122,121,121,120,120,121,121,120,121,120,122,121,121,122,121,121,122,122,123,121,121,121,121,119,119,120,122,121,121,122,120,120,120,120,122,121,121,121,120,121,124,122,122,121,122,122,120,120,123,121,122,122,122,121,119,120,115,119,121,121,121,121,120,121,124,120,121,121,121,120,120,121,123,121,121,121,121,122,121,121,122,122,122,121,121,121,121,121,122,121,122,121,120,120,121,121,121,120,121,121,121,122,121
120,121,121,122,121,121,121,120,121,122,121,121,121,121,122,120,121,122,121,121,121,121,122,122,121,121,120,121,121,121,122,121,120,122,121,122,121,121,121,120,121,121,121,121,121,121,122,121,118,119,120,122,121,121,121,120,119,120,121,122,121,121,120,119,121,121,120,122,121,121,122,122,121,123,121,122,121,121,121,121,121,120,121,122,122,121,121,121,118,120,121,121,120,120,120,118,120,127,121,122,121,122,121,121,120,114,121,122,121,121,122,121,121,125,120,121,121,121,121,120,121,122,121,122,121,122,122,121
120,122,121,122,121,121,121,120,120,121,120,122,121,121,120,120,120,121,121,122,122,121,121,120,120,122,121,122,121,121,121,119,120,121,122,122,121,122,121,120,121,122,121,122,121,120,121,120,119,120,120,121,122,121,121,120,121,122,121,122,122,121,121,119,122,123,122,122,120,121,121,121,120,121,122,122,121,120,121,121,121,122,121,122,121,121,121,121,121,123,121,121,121,121,122,121,120,121,122,122,121,121,121,121,121,122,121,122,120,120,121,121,120,121,121,122,121,121,121,119,121,122,121,121,121,121,121,121
121,125,121,121,121,121,122,120,119,115,121,121,120,120,121,120,122,127,120,121,121,121,122,121,120,118,122,122,121,122,122,122,120,123,121,122,121,121,122,120,121,122,120,122,121,121,121,118,121,122,121,122,122,121,121,122,121,123,121,121,121,121,121,121,120,122,121,122,121,121,121,121,120,120,121,122,121,122,121,120,120,122,121,121,120,120,121,120,120,122,121,122,121,121,120,120,121,123,121,121,120,121,121,120,121,122,121,122,121,122,121,120,122,120,121,122,122,121,121,121,119,123,121,122,121,121,121,119
120,117,120,122,121,121,121,122,120,123,122,122,122,122,121,118,121,122,121,122,122,121,121,120,121,121,121,122,121,121,122,121,120,122,121,122,121,121,121,120,121,122,121,122,122,121,122,121,121,122,121,122,122,120,120,119,121,123,120,121,121,121,122,123,119,118,120,121,121,121,121,118,121,123,121,121,120,121,122,122,123,123,121,121,121,121,121,121,119,120,120,121,121,121,121,119,121,121,122,122,120,120,121,121,122,127,121,121,121,121,122,121,119,114,120,122,121,120,120,118,121,124,122,122,121,122,121,121
122,123,121,121,121,121,122,123,121,122,121,121,120,121,121,121,120,121,120,121,121,121,121,119,122,122,120,121,121,121,121,121,120,120,120,121,120,121,122,120,121,122,121,121,121,121,121,120,120,122,121,122,122,122,122,119,120,120,120,121,121,121,122,120,120,119,120,121,121,121,121,120,120,121,120,122,121,121,121,121,121,121,121,121,121,121,121,121,121,121,121,122,121,122,122,122,121,125,121,122,121,121,121,118,118,115,119,122,121,120,121,121,120,122,119,121,121,121,121,119,123,124,122,122,121,122,123,123
122,122,122,122,121,121,122,125,118,121,121,122,122,121,119,114,120,119,120,122,122,121,121,119,121,122,121,122,122,122,122,123,121,121,120,121,121,121,122,122,120,122,121,122,122,122,122,120,120,120,120,122,121,121,121,118,120,121,121,121,120,121,122,120,121,122,121,122,121,121,122,119,120,121,121,122,121,121,121,119,121,121,121,122,121,121,121,121,120,122,121,122,121,121,121,121,121,120,121,122,121,121,122,122,120,121,121,122,121,121,122,119,120,122,120,122,121,121,122,121,119,116,119,121,121,121,121,120
121,123,121,121,121,121,122,121,121,121,120,122,121,121,121,122,121,122,121,122,122,122,122,120,120,125,121,122,121,122,121,120,118,111,120,122,122,121,121,121,122,127,121,122,121,121,121,119,120,122,122,122,120,120,121,120,122,120,120,121,121,121,121,121,121,122,122,122,121,121,121,120,121,121,121,122,121,121,122,122,120,122,120,121,121,121,121,119,120,119,119,121,121,121,121,119,120,121,120,122,121,121,122,120,120,122,121,122,122,121,120,119,121,122,121,122,121,121,122,121,121,122,121,122,120,121,121,120
120,121,120,121,121,121,121,120,120,119,119,120,121,121,121,121,121,122,120,122,122,121,122,122,121,123,122,122,121,120,121,119,120,122,121,122,121,122,122,121,121,122,121,122,121,121,121,121,121,123,122,122,121,120,121,120,119,120,121,122,121,121,122,121,122,125,121,122,121,121,122,121,119,115,121,122,121,121,121,120,121,123,119,121,121,120,121,120,122,123,122,122,122,122,122,121,120,122,120,121,120,121,121,121,119,117,119,121,121,121,121,121,121,122,122,122,121,120,121,121,121,122,121,122,121,120,121,121
121,122,121,121,121,121,122,120,121,122,121,121,120,121,121,121,120,122,121,122,121,121,121,119,121,121,121,122,121,121,122,121,122,122,120,121,121,121,121,121,119,118,121,122,121,121,121,118,119,120,121,122,121,121,121,119,121,123,121,121,121,121,122,121,121,121,122,123,121,121,122,121,119,119,119,122,121,121,121,121,120,120,120,122,121,121,121,120,121,123,121,121,121,121,121,121,121,122,122,122,121,121,121,121,120,121,121,122,122,122,122,120,122,123,121,121,121,121,121,120,119,121,121,122,121,121,121,119
121,118,119,121,121,121,121,122,123,125,122,122,122,121,122,121,119,120,121,122,122,121,120,120,120,122,121,121,120,121,121,121,121,123,121,121,121,121,121,121,121,122,121,121,121,121,122,120,120,120,121,122,121,122,122,121,121,121,120,122,121,121,122,122,121,124,122,121,120,121,121,122,119,117,120,122,121,121,121,120,121,124,121,121,120,121,121,120,121,122,122,122,121,120,121,122,120,123,121,122,121,121,122,120,120,118,119,121,122,121,121,119,121,123,122,122,121,121,121,121,121,122,120,122,121,121,122,121
120,120,121,122,122,121,122,120,120,121,121,122,121,121,122,121,120,123,121,121,121,121,122,120,119,117,119,121,121,121,122,120,122,124,120,121,121,121,121,120,120,120,120,122,121,121,121,119,121,120,120,121,121,121,121,119,121,122,121,122,121,122,122,121,122,123,121,121,121,121,121,122,120,119,119,121,121,121,122,120,121,121,120,121,121,121,122,120,121,123,122,122,121,121,121,121,121,122,121,121,120,121,121,120,121,122,122,122,121,121,121,121,120,121,122,122,120,120,121,120,120,121,121,122,121,121,120,121
121,122,121,122,121,121,122,122,119,121,121,122,121,120,120,118,120,121,120,121,121,121,121,119,121,122,121,121,120,121,121,121,120,121,122,122,122,121,122,121,121,122,121,123,122,121,121,121,120,122,121,122,122,121,121,119,120,119,120,121,121,122,121,120,121,123,122,122,121,121,122,121,120,121,121,122,121,121,120,119,120,118,121,122,121,120,120,120,119,122,121,122,121,122,121,118,120,120,121,122,121,122,122,120,122,126,123,122,121,121,122,121,118,114,119,121,121,121,121,120,122,124,121,121,121,121,121,121
122,123,122,122,121,120,121,121,120,122,121,122,121,121,122,119,121,122,121,122,122,122,121,120,120,121,121,122,121,120,121,120,119,120,121,122,121,121,121,120,121,121,121,122,121,121,122,120,120,122,121,121,121,121,121,120,121,121,120,122,121,121,121,121,120,122,122,122,121,121,121,121,124,122,121,122,121,121,121,121,115,119,121,123,122,122,122,117,128,124,122,122,122,122,126,121,102,114,118,120,120,120,119,115,125,122,122,123,122,120,119,121,122,123,121,122,122,122,121,121,121,121,121,121,121,122,122,121
121,125,121,122,122,121,121,121,118,115,119,121,121,121,121,119,119,117,120,121,121,121,121,120,123,126,122,122,122,122,122,121,121,122,121,122,122,122,121,119,121,122,121,121,121,121,122,120,120,120,121,122,121,121,122,120,121,121,120,121,121,121,121,121,120,121,121,122,121,121,120,120,120,121,120,122,121,121,121,119,120,121,120,121,121,120,121,120,119,120,121,122,121,121,121,120,126,124,121,121,121,121,122,122,121,122,120,122,121,121,121,121,123,119,119,120,121,121,121,120,119,121,120,121,120,120,121,119
123,123,122,122,122,121,122,123,121,121,122,123,122,121,122,121,124,124,121,121,121,120,121,122,122,124,121,121,121,121,125,121,122,119,121,121,120,122,118,121,123,125,122,122,122,123,125,121,120,121,120,121,121,120,120,120,120,119,120,122,122,121,120,119,120,122,122,122,121,121,121,120,121,122,121,122,121,121,121,121,120,122,121,121,120,121,121,121,120,121,121,122,122,122,121,120,121,126,121,121,120,120,121,119,119,115,121,122,121,121,121,120,122,127,122,123,121,121,121,121,119,119,121,122,122,124,121,120
119,121,120,122,121,119,120,118,120,122,121,122,122,123,121,121,121,122,121,122,122,121,121,121,121,121,121,122,121,121,120,120,123,123,122,121,121,120,121,122,111,115,119,121,121,119,119,117,123,124,122,121,122,123,122,121,120,123,122,122,122,121,119,116,120,122,121,123,122,121,123,122,120,121,121,122,123,123,121,120,120,119,120,121,121,120,121,119,122,124,121,121,120,119,120,121,121,119,120,122,122,122,124,122,119,121,122,122,122,122,121,117,121,121,122,122,120,120,121,121,121,122,120,120,120,119,119,119
121,120,120,121,121,120,123,125,121,122,121,122,120,120,120,119,119,122,121,122,121,121,120,118,120,118,119,121,121,121,122,120,121,123,122,122,121,123,122,122,120,121,121,122,122,123,120,119,122,121,118,117,117,117,121,121,119,119,119,120,118,117,120,122,119,123,123,123,121,120,118,112,120,120,121,122,121,123,121,124,121,121,121,122,121,118,118,119,121,122,121,122,121,123,123,120,122,122,121,122,121,121,122,124,119,121,121,123,123,124,122,119,121,121,122,123,123,122,121,119,126,124,121,121,121,120,121,123
119,122,119,120,119,120,122,121,128,123,122,123,123,122,124,128,117,120,118,118,118,119,117,109,122,122,121,123,123,125,126,124,121,119,120,121,120,120,121,122,119,120,121,121,122,121,119,118,121,124,121,121,120,123,122,121,125,124,124,126,125,123,123,125,116,119,120,122,122,124,125,121,122,122,121,121,122,119,120,120,120,122,121,124,122,123,121,120,123,121,119,120,122,124,123,120,117,121,121,124,115,116,121,121,121,122,121,122,124,123,121,118,124,124,121,121,122,125,125,123,123,123,122,121,121,120,122,121
122,121,125,127,122,122,123,121,119,121,120,123,125,123,117,119,121,123,124,126,123,124,126,124,112,116,116,117,122,123,121,119,109,118,125,129,121,119,122,116,127,124,122,124,123,124,127,127,125,121,117,110,122,124,126,121,122,124,122,130,120,117,116,121,121,118,119,114,115,117,119,115,128,123,120,121,122,118,119,124,120,122,120,124,123,123,123,121,119,120,120,120,119,118,121,122,125,123,121,118,118,120,122,120,108,117,117,116,121,119,118,116,126,123,121,122,123,120,128,123,121,123,124,125,114,115,112,119
120,122,120,124,123,121,121,120,122,123,120,118,121,120,121,121,124,123,123,125,121,122,124,120,112,119,119,120,122,122,120,119,132,127,127,133,123,120,120,123,104,121,125,122,120,121,121,117,118,122,119,116,119,120,125,122,124,122,122,125,123,121,119,121,128,128,121,119,124,121,123,122,123,114,122,124,117,119,117,118,113,119,120,122,121,117,115,117,80,109,115,118,121,123,127,110,133,127,122,122,121,123,126,126,123,122,121,122,122,119,118,120,122,123,122,127,124,122,119,120,121,122,122,120,118,119,128,123
112,119,120,123,123,120,115,118,122,123,122,125,125,126,124,124,120,119,117,118,119,121,120,121,121,123,121,121,120,119,121,120,123,123,121,120,121,124,127,123,126,124,124,125,123,121,122,123,116,120,118,116,116,118,120,117,123,122,124,121,122,123,123,122,114,120,118,119,118,116,119,119,136,127,124,129,126,123,122,124,138,123,119,116,116,118,120,127,36,97,113,119,119,116,113,96,141,128,124,124,124,124,125,127,137,126,122,123,122,122,127,123,102,110,116,117,118,117,107,105,132,127,122,123,121,123,129,130
122,122,121,122,122,120,121,121,117,119,119,120,120,121,115,117,122,122,122,123,121,120,125,120,124,121,119,129,129,124,122,123,121,120,122,104,107,115,119,119,116,123,121,124,125,124,124,120,123,118,120,124,123,121,121,121,123,128,124,123,126,129,126,124,124,121,121,123,123,123,123,122,98,114,119,119,117,119,117,113,123,124,120,121,121,119,118,120,125,124,123,125,123,125,128,123,122,121,120,121,121,120,117,120,150,128,123,129,125,124,124,129,85,106,115,108,113,115,116,107,134,125,123,127,121,120,120,124
127,124,122,121,122,121,118,120,124,121,120,122,122,122,122,122,128,123,121,123,123,124,120,119,110,120,121,121,119,120,129,127,123,122,120,123,121,114,111,118,123,123,122,123,121,124,123,120,121,123,123,124,123,124,124,120,123,118,118,121,121,118,118,120,106,117,118,119,121,121,124,118,116,120,120,120,121,122,121,117,140,129,124,124,123,125,121,126,94,112,119,120,120,121,119,112,133,126,122,122,122,121,121,123,126,123,120,122,122,125,122,123,129,123,120,119,119,120,120,120,118,123,122,122,122,121,121,121
111,118,118,120,121,121,118,115,132,125,123,122,122,122,128,126,125,122,120,122,123,123,118,121,121,122,122,122,116,114,121,121,118,118,119,117,119,123,120,119,124,124,121,122,122,120,123,121,121,122,123,125,121,121,117,121,125,124,120,120,121,122,122,123,121,119,122,125,121,121,123,121,97,118,120,120,120,119,117,112,129,125,122,122,122,123,122,122,134,128,123,127,124,120,120,125,119,119,120,117,117,123,125,118,111,115,118,121,121,121,121,118,128,124,121,122,122,119,117,122,133,126,121,120,121,121,122,126
75,109,118,122,121,119,115,108,119,118,119,117,118,120,122,120,123,122,120,120,120,119,121,120,125,122,120,120,119,119,117,119,114,119,119,121,120,122,125,121,127,124,123,124,121,119,120,120,121,122,123,123,123,123,121,120,135,127,123,124,125,122,119,125,86,113,119,116,118,125,124,111,129,123,120,122,124,124,123,124,125,123,121,123,122,118,120,122,121,123,122,122,120,120,124,122,125,121,120,121,120,118,118,121,118,119,120,124,123,124,124,120,125,123,123,118,118,120,124,122,113,119,117,119,119,120,117,118
133,124,123,126,124,123,122,122,95,114,120,124,121,122,122,113,137,126,120,121,122,120,123,124,117,119,120,120,122,121,114,117,120,119,119,120,117,116,125,119,125,126,122,124,125,124,118,118,134,124,121,123,121,120,119,122,127,123,124,122,121,122,122,122,125,125,123,124,124,125,123,121,126,118,119,123,123,123,123,122,118,121,119,120,121,121,124,118,120,123,120,117,122,119,118,120,122,118,122,121,116,122,123,120,137,128,122,124,122,115,120,123,105,115,119,122,127,126,124,117,131,122,117,109,110,119,120,123
116,121,122,127,123,121,122,118,122,123,121,123,124,124,119,122,124,123,122,123,122,121,122,121,108,115,118,120,120,121,121,116,136,127,122,121,122,124,120,124,113,122,120,122,119,116,116,117,134,125,121,120,120,121,124,126,90,115,119,122,122,121,124,113,128,125,120,120,122,124,108,119,127,120,120,118,118,115,123,122,125,123,121,123,122,125,123,119,125,119,119,119,120,120,120,120,125,125,124,126,122,122,122,122,125,120,117,116,118,116,116,118,117,122,123,122,121,126,126,121,123,122,122,123,122,119,119,120
131,125,121,124,123,122,121,122,131,123,121,126,122,121,122,123,146,125,119,113,115,115,120,126,110,114,117,118,119,121,120,115,132,125,123,125,121,123,120,121,127,121,121,124,125,121,124,124,100,116,121,124,121,120,118,113,124,120,122,122,122,123,123,120,132,126,121,117,119,121,121,125,121,117,120,123,122,121,119,120,121,122,119,120,120,122,125,120,122,121,121,125,122,118,119,121,120,123,122,123,125,127,126,122,122,120,120,118,118,121,116,118,132,123,120,121,122,120,125,122,114,119,122,127,124,123,120,119
132,126,123,123,120,124,123,125,117,121,121,124,123,120,121,117,123,121,121,123,122,123,121,118,119,124,121,122,121,120,121,121,144,127,121,116,117,120,124,129,98,112,116,119,117,116,116,109,148,128,122,118,120,123,119,130,77,108,117,122,121,116,113,107,118,121,121,126,123,128,128,122,119,121,120,118,122,124,124,123,115,120,121,126,127,126,123,120,128,122,121,118,118,121,124,124,127,125,123,129,125,123,123,123,111,120,120,116,121,125,122,118,122,123,122,125,122,123,123,122,130,127,122,120,119,120,122,123
105,119,121,122,122,119,119,116,107,114,118,119,120,122,118,118,129,124,122,125,121,117,119,122,131,126,121,122,123,124,124,125,89,107,116,118,118,119,118,108,142,130,124,123,122,122,122,125,115,121,121,124,123,123,122,120,115,121,120,116,120,125,125,120,130,122,122,132,123,120,119,121,138,128,120,112,118,121,127,127,104,113,116,120,120,118,118,114,128,122,122,128,125,125,127,124,129,123,120,116,120,117,116,120,122,122,124,116,117,126,128,121,87,111,117,122,121,114,112,108,136,126,122,119,122,126,122,125
122,121,117,115,116,118,120,121,125,123,125,121,117,111,116,121,133,126,124,129,127,123,125,126,108,119,119,116,115,115,117,114,118,121,121,126,125,120,121,120,130,123,119,111,116,121,121,124,115,119,120,117,113,113,120,121,101,116,120,127,126,124,122,114,128,119,120,127,123,119,119,121,132,125,122,121,123,122,120,123,120,122,120,119,118,119,120,121,99,114,118,122,121,119,121,113,121,121,121,122,121,119,118,121,132,126,121,126,123,121,123,124,117,122,119,117,113,110,118,117,123,116,115,105,113,118,117,116
118,121,121,122,121,125,121,120,131,124,124,129,124,122,124,124,136,127,124,131,129,123,121,126,78,106,116,109,108,113,116,104,130,125,123,126,125,123,123,125,123,124,121,120,122,123,124,123,123,122,121,130,125,123,121,121,109,116,118,104,112,116,121,116,134,125,123,127,125,123,121,125,115,124,122,121,121,117,119,118,131,119,119,122,123,121,121,121,88,114,118,110,114,117,116,109,131,124,123,125,124,122,126,125,125,122,121,122,122,122,122,120,125,123,121,128,128,127,123,123,129,124,119,108,108,112,119,119
124,117,122,127,123,118,113,117,121,122,121,126,125,130,133,121,128,123,120,109,115,115,112,119,121,121,122,125,126,125,124,122,121,120,122,123,117,119,121,120,112,120,122,125,126,130,124,118,133,123,121,129,125,119,122,124,116,117,116,114,116,116,118,117,150,130,120,120,119,116,121,126,88,108,117,118,118,120,117,110,130,122,120,125,123,128,120,123,124,125,122,123,122,120,123,121,137,130,124,122,121,120,120,124,92,113,119,124,123,123,121,111,134,123,121,117,120,121,118,123,115,122,122,124,123,124,127,121
122,125,125,129,125,126,119,120,124,123,120,126,124,122,123,121,122,124,124,123,123,122,122,123,129,123,121,123,124,124,123,124,113,117,115,112,111,114,116,116,124,119,118,125,123,122,122,118,129,122,121,123,123,123,123,123,136,127,121,124,125,131,129,128,117,119,123,123,121,118,119,118,120,124,122,122,120,118,118,118,140,127,123,123,121,123,123,125,113,117,119,127,122,119,122,117,110,121,120,118,119,116,119,118,115,119,120,125,122,120,119,118,120,121,122,127,124,119,119,118,115,120,121,115,117,122,119,116
129,125,121,119,121,124,125,124,135,126,122,123,121,119,122,125,108,114,117,120,120,120,116,117,129,125,122,123,121,121,124,124,125,124,122,119,120,120,120,121,122,122,122,126,124,122,121,120,129,125,124,124,125,123,123,124,112,121,118,110,112,118,122,116,128,121,125,129,124,119,121,123,126,125,123,125,123,121,121,121,132,127,122,123,122,119,121,124,105,114,118,118,119,121,121,116,115,121,120,123,120,119,119,118,129,124,121,121,121,121,124,122,124,122,122,123,122,121,129,121,146,130,124,126,124,123,126,134
38,104,116,114,111,115,110,93,111,119,121,126,125,122,125,118,133,127,124,126,124,124,123,126,123,120,119,121,121,123,124,122,123,123,121,125,126,127,123,122,117,118,122,126,122,121,126,120,109,117,114,93,106,115,115,116,126,122,123,128,127,125,127,124,133,129,124,126,124,121,121,125,97,114,117,121,121,122,119,112,130,127,128,125,121,124,123,125,122,123,121,124,123,122,121,122,119,122,121,124,124,120,122,121,120,118,120,113,116,121,119,118,114,122,121,123,123,119,122,120,121,122,122,124,122,123,124,121
138,127,125,133,130,127,122,127,101,117,118,104,105,113,120,113,116,122,124,127,124,117,114,118,123,125,122,124,123,124,122,123,125,123,121,123,122,121,127,123,136,125,121,122,121,119,116,120,115,117,119,123,122,123,128,119,114,117,119,119,118,117,113,115,128,123,120,122,122,124,124,125,120,122,124,126,124,121,122,121,124,123,121,123,123,124,123,121,120,120,120,125,121,121,121,121,123,123,119,111,115,119,121,121,116,123,122,122,122,122,121,118,116,120,120,121,119,117,118,117,123,118,119,124,124,122,120,119
114,121,122,120,120,121,121,119,125,121,117,109,109,114,119,120,126,120,123,127,124,125,122,119,122,119,119,126,122,119,118,122,91,114,120,123,123,122,120,111,134,124,121,112,113,114,115,121,126,125,122,126,125,124,123,122,115,120,120,125,124,123,122,117,129,123,121,119,122,121,119,122,114,118,119,121,115,112,120,116,120,121,120,119,122,120,118,118,128,125,122,125,124,126,125,123,116,120,121,121,123,125,124,120,130,126,124,121,120,121,121,125,104,119,120,124,124,123,122,115,127,125,122,123,122,124,126,125
132,127,124,129,126,123,121,125,71,108,117,119,114,113,114,106,135,126,121,111,117,122,121,123,97,113,118,123,121,121,121,114,130,123,122,127,127,123,124,125,132,125,122,121,121,124,123,125,114,116,120,110,116,118,119,114,116,114,117,122,119,117,118,118,138,128,124,127,126,123,118,127,128,124,123,124,124,122,124,125,123,123,124,124,122,121,126,126,110,115,117,118,119,122,120,112,134,127,123,124,123,121,118,124,124,121,120,124,122,122,122,122,122,122,120,113,114,115,120,120,113,121,119,122,122,120,120,119
119,121,118,110,114,117,116,117,130,124,125,128,126,125,127,123,120,119,118,120,123,122,122,119,127,121,118,118,112,112,117,119,134,126,122,118,122,121,122,125,117,122,120,120,121,122,123,119,95,105,115,121,118,114,108,111,88,121,121,118,119,122,123,113,136,127,122,125,123,124,126,125,129,125,121,121,121,117,118,122,139,127,124,126,119,120,121,127,99,110,116,111,113,118,113,112,131,127,123,128,126,121,122,124,124,119,121,122,122,125,125,123,123,123,122,128,126,122,124,121,118,121,120,111,115,122,122,119
121,121,123,126,118,118,122,119,121,122,123,124,124,121,120,120,121,121,120,126,124,122,123,119,128,125,126,122,119,121,122,124,111,118,121,126,122,117,119,114,130,124,122,124,126,126,123,123,124,124,122,123,123,124,121,124,117,116,117,121,117,122,121,120,123,117,115,118,114,112,117,118,98,114,118,119,121,122,124,113,138,131,124,124,124,120,112,124,118,120,121,123,123,126,125,117,148,130,121,118,117,118,119,128,58,103,116,119,120,125,128,107,136,127,121,123,123,122,120,123,128,124,123,130,127,123,123,124
116,116,114,97,103,110,112,116,125,125,126,130,124,118,122,123,123,122,120,124,123,121,121,120,123,121,121,114,117,122,120,122,104,119,119,125,121,120,120,116,124,120,120,116,118,120,122,118,133,126,120,121,116,115,122,124,134,123,122,123,123,122,122,122,126,125,122,124,123,123,122,122,117,117,119,115,116,119,122,119,117,124,122,124,122,119,118,119,123,122,121,122,122,121,120,121,121,121,120,121,120,119,119,119,122,123,122,125,122,120,117,119,111,116,117,114,115,118,124,119,127,121,122,124,121,120,120,121
128,125,120,123,125,123,124,125,114,120,122,117,115,122,124,119,116,121,122,123,120,116,118,118,125,122,119,124,119,111,118,121,111,117,118,114,121,124,121,119,120,121,121,117,116,118,121,120,130,125,123,127,126,124,124,123,121,121,118,121,121,122,123,120,114,115,119,125,122,124,125,117,128,125,121,123,124,122,120,120,129,125,123,123,122,122,122,123,118,119,119,119,118,117,119,122,85,116,120,123,122,121,120,112,118,121,121,120,120,122,116,116,140,126,121,123,122,123,126,126,130,124,122,123,123,123,121,122
125,124,122,125,122,121,123,123,118,116,114,112,112,118,116,116,122,124,121,117,114,113,117,120,121,121,121,122,122,123,121,121,120,124,123,131,130,126,125,122,134,124,119,112,111,110,117,126,95,115,122,130,128,124,122,114,125,123,122,124,123,121,121,121,127,123,121,122,122,121,122,122,115,122,123,124,121,123,125,120,118,119,118,121,120,120,120,117,131,127,123,123,120,120,124,124,122,119,120,123,122,121,120,120,108,120,121,124,123,122,121,116,140,129,123,126,123,125,125,123,125,120,118,111,114,115,115,119
121,121,121,125,123,122,124,119,125,123,121,124,123,123,121,122,124,124,122,122,122,120,120,124,115,118,120,123,124,125,124,119,122,121,118,112,113,114,118,119,120,120,121,125,121,120,117,120,119,120,119,121,116,115,119,119,119,122,120,125,120,122,123,121,123,119,120,126,123,120,121,121,124,123,122,123,123,121,121,122,118,122,123,125,123,123,123,119,132,121,117,116,118,117,117,120,123,120,121,122,121,124,122,119,133,125,122,125,122,122,127,125,136,126,122,124,123,124,129,128,99,117,121,128,125,123,117,111
126,123,118,115,118,120,124,124,128,124,121,118,119,120,118,121,128,123,120,122,121,119,121,124,109,118,117,118,119,121,121,115,127,122,122,122,124,127,128,124,120,117,118,118,117,119,119,118,121,122,121,123,123,122,119,118,120,121,122,127,123,122,121,120,123,123,120,117,119,122,122,123,120,121,121,125,124,121,121,120,125,118,121,119,118,116,121,123,110,116,119,115,118,120,120,113,143,129,124,125,121,121,123,127,89,112,119,123,123,122,122,113,113,120,119,118,120,120,120,117,142,128,124,124,121,120,122,128
55,104,117,122,117,120,118,105,125,123,121,124,123,121,125,123,117,121,125,127,126,123,120,123,123,123,121,124,122,122,120,120,118,121,121,120,121,121,122,119,122,122,121,118,119,120,120,121,119,121,121,123,120,120,120,121,118,120,118,121,120,118,119,118,122,122,122,121,124,126,125,123,126,123,125,126,119,120,121,123,111,119,120,126,125,123,120,117,112,120,119,108,112,115,120,117,125,122,123,131,126,121,121,121,133,126,123,124,121,119,117,124,112,114,118,121,123,124,123,117,103,116,122,125,124,124,122,116
140,126,122,122,121,122,131,127,125,126,122,123,123,122,113,122,117,116,119,120,121,123,127,121,120,123,122,122,121,119,121,121,123,121,119,119,121,121,122,121,135,127,124,126,121,119,120,123,95,112,119,122,124,126,121,114,125,122,120,116,113,113,121,120,123,123,123,128,125,128,124,121,122,121,119,124,121,115,118,120,128,121,118,118,119,118,121,122,104,117,118,122,122,122,118,114,117,122,127,133,123,118,120,118,118,120,119,123,125,125,124,124,119,121,121,123,125,126,124,120,114,120,121,123,118,118,121,118
131,127,122,120,122,123,123,124,133,123,122,125,123,122,124,124,119,121,120,119,120,121,118,120,115,115,117,121,121,120,120,116,121,122,119,117,119,120,120,120,127,122,121,123,121,119,120,122,127,124,124,132,128,128,128,123,104,113,114,107,112,115,116,113,122,123,122,116,116,120,120,119,124,121,119,123,124,122,120,119,121,121,120,122,123,123,123,121,135,127,122,120,120,122,122,124,82,105,113,115,111,109,113,108,131,126,123,129,125,124,126,126,125,123,123,120,122,122,120,121,117,117,119,123,123,122,120,118
129,126,123,132,131,127,123,123,116,119,118,111,109,112,119,120,105,118,122,126,123,120,121,117,126,125,123,126,125,122,123,122,128,124,121,122,122,124,126,124,144,129,123,122,121,121,122,132,39,99,113,123,124,122,118,95,142,125,125,124,119,120,121,125,135,126,122,125,124,122,120,124,123,122,120,122,121,120,120,120,126,124,123,123,122,123,123,124,117,120,121,120,123,124,122,117,127,123,123,117,116,114,120,123,122,122,122,125,123,124,121,120,121,122,122,124,123,122,123,121,121,122,120,126,127,123,121,120
127,122,118,121,120,118,123,127,105,116,119,97,105,116,117,113,121,122,122,128,128,124,123,120,125,124,122,125,124,124,127,122,123,122,121,123,123,121,120,120,113,121,122,122,122,122,124,119,116,120,123,122,120,120,121,119,147,126,121,121,121,121,125,129,102,116,120,120,121,119,118,113,122,123,122,124,121,120,122,122,123,124,122,125,123,123,126,121,119,120,121,117,117,117,119,119,123,124,123,125,123,122,122,121,122,122,122,125,125,125,125,122,126,122,121,118,117,120,122,122,116,123,125,129,126,125,127,122
123,124,122,127,126,123,121,121,122,122,120,117,118,119,122,122,114,117,119,121,121,122,119,118,123,123,122,123,121,121,123,121,124,125,123,132,126,120,122,122,131,126,120,109,114,123,125,123,109,114,119,122,122,119,118,114,125,121,120,123,122,122,123,123,135,127,124,122,122,120,117,123,92,113,119,122,121,121,124,115,111,119,120,122,122,122,118,117,136,128,124,122,123,123,121,125,98,113,118,119,117,117,123,116,127,122,121,120,121,121,120,121,124,123,122,122,126,126,126,122,122,120,122,121,118,118,116,122
119,120,120,123,122,121,122,120,121,121,119,121,122,123,122,121,119,122,123,122,118,115,119,118,121,122,120,123,121,121,122,120,123,122,121,124,122,121,121,122,115,120,120,116,119,122,121,118,122,120,120,123,122,120,119,119,120,119,119,121,122,122,122,120,142,127,122,124,122,122,120,126,103,114,118,112,111,113,116,112,125,122,121,121,122,122,120,119,135,125,121,122,121,121,123,125,143,127,122,122,123,123,120,127,101,116,119,121,119,119,119,112,128,122,122,122,121,122,122,122,108,123,122,123,122,120,120,117
115,113,119,121,119,118,119,117,122,124,122,133,129,123,122,122,126,123,122,103,110,120,123,124,108,118,120,125,124,121,118,114,124,123,121,124,123,121,120,122,122,123,120,121,120,121,121,121,119,120,119,121,121,120,121,120,119,121,122,121,120,121,120,120,129,125,123,123,120,119,123,125,100,115,119,122,123,123,118,114,121,122,121,122,121,120,122,121,129,126,123,118,120,123,122,123,116,117,120,118,116,114,116,115,134,126,123,125,123,124,129,127,120,122,121,122,122,122,118,120,99,114,118,119,119,119,119,115
132,127,124,128,125,123,125,125,112,110,115,117,114,114,119,111,135,126,121,121,122,121,122,122,128,124,120,120,123,123,123,124,116,121,122,123,123,122,121,121,123,121,121,123,122,122,122,122,117,120,122,126,118,116,119,119,122,123,121,118,118,117,119,119,122,120,122,124,122,120,121,121,147,130,122,125,126,123,122,131,57,98,113,108,107,111,113,100,138,128,123,125,125,125,125,128,119,122,121,124,122,120,120,122,132,123,120,123,123,122,121,122,112,116,118,117,115,116,120,117,104,116,119,123,123,124,121,116
133,128,125,122,120,121,121,127,108,114,117,122,122,119,120,117,124,121,118,117,118,122,120,120,124,123,124,124,120,115,119,122,117,120,121,124,125,127,122,118,122,121,116,113,118,119,124,119,118,121,124,126,119,120,120,119,128,123,122,126,123,119,119,122,109,119,120,122,122,122,121,118,121,121,120,121,120,120,123,121,132,125,121,122,122,122,125,124,113,119,119,121,120,120,119,116,123,122,120,122,121,121,121,121,122,120,120,120,121,122,124,122,123,123,121,123,121,121,122,122,139,126,121,128,127,127,126,127
69,106,116,99,104,113,115,107,123,124,121,128,126,123,124,122,126,123,123,125,123,123,119,124,120,123,122,123,124,124,121,121,118,120,123,125,118,117,119,119,119,118,114,119,118,119,124,120,122,123,119,117,120,123,119,119,122,123,122,123,122,122,122,121,121,118,120,127,122,120,119,120,113,121,119,116,120,121,123,120,113,120,120,122,122,122,121,118,125,121,122,124,123,123,125,123,133,125,122,122,122,123,122,126,105,114,119,120,121,123,123,117,94,116,118,120,120,118,118,114,100,114,119,122,121,122,118,112
135,123,120,118,119,121,127,125,132,126,123,125,124,121,122,123,120,122,121,120,121,122,122,119,128,125,122,124,120,121,122,124,115,116,120,121,122,121,122,118,123,123,119,119,118,120,121,121,121,118,123,126,120,120,120,120,120,122,119,122,125,123,121,120,123,123,122,125,119,122,120,119,129,125,121,117,116,115,119,121,121,121,121,122,123,123,123,121,125,124,123,126,123,125,122,122,117,119,120,120,121,121,123,120,127,124,122,121,121,120,118,122,115,124,125,125,123,123,123,120,120,120,119,118,120,120,121,119
127,122,121,123,122,121,118,119,117,118,119,122,122,120,121,119,131,123,123,122,121,121,123,123,106,116,118,118,122,123,123,119,126,123,123,123,121,119,114,120,123,124,122,123,124,124,122,121,135,125,122,122,117,115,121,124,115,118,120,120,122,124,123,118,123,122,119,124,123,121,120,120,123,121,121,117,118,119,120,121,119,119,123,123,119,120,120,120,121,121,120,121,122,121,122,121,121,121,119,119,120,120,121,120,129,124,120,125,124,121,123,125,104,115,116,105,112,117,120,117,128,125,122,125,123,122,123,123
130,124,121,123,120,120,120,120,121,120,119,120,120,120,120,118,126,121,121,122,122,122,122,122,112,118,119,121,120,119,119,117,108,116,120,122,122,122,122,118,125,124,122,121,120,119,120,120,126,122,122,121,122,122,125,123,121,119,119,119,118,117,112,117,125,123,121,123,124,125,124,123,122,123,123,122,122,122,121,120,134,128,123,126,126,125,124,126,103,110,116,115,113,114,117,113,126,124,122,122,123,121,121,121,123,123,121,123,122,121,122,122,120,121,120,121,119,119,121,121,126,121,120,121,121,120,118,121
113,119,120,122,121,120,122,118,128,123,119,119,120,121,120,121,115,119,119,117,118,122,125,120,129,121,119,122,122,121,126,123,121,122,121,121,120,119,111,117,124,119,119,120,121,121,122,121,115,123,123,124,122,121,125,123,100,115,120,122,120,120,116,115,142,131,124,125,126,123,122,129,70,107,117,117,114,119,121,107,132,123,121,118,121,121,121,126,125,124,123,125,121,116,118,122,121,121,120,120,120,122,122,120,118,121,120,125,123,120,119,119,124,124,122,113,114,120,126,122,118,120,121,126,124,123,123,119
123,123,120,120,121,121,122,122,123,122,118,120,121,120,121,121,122,122,125,121,120,122,123,120,116,120,120,123,123,122,122,119,135,125,122,121,121,121,122,125,101,114,118,118,120,122,120,114,121,121,120,120,121,122,119,119,141,128,124,125,124,123,124,126,123,121,120,122,122,120,119,120,134,127,123,123,121,121,123,124,121,116,119,121,121,120,119,118,130,123,120,121,119,120,122,124,111,121,121,124,124,122,120,119,131,126,120,122,118,120,126,122,115,112,119,120,118,117,113,116,130,127,121,123,123,122,122,122
122,124,124,124,123,124,123,123,119,119,117,119,120,120,120,118,119,121,125,119,114,115,119,119,124,122,121,125,124,124,120,121,125,123,120,122,122,123,125,124,115,119,122,124,120,120,119,117,123,122,120,122,120,120,120,120,137,126,123,125,124,126,126,125,110,118,121,123,119,117,120,118,115,117,119,121,122,122,120,117,127,124,121,122,122,121,124,124,140,128,123,123,123,124,122,127,77,111,120,122,118,121,124,108,139,126,122,126,124,122,124,123,132,127,123,125,125,123,123,124,123,122,122,123,122,122,121,121
116,120,121,121,121,121,121,119,139,127,120,122,124,124,124,124,108,111,117,117,116,114,113,111,128,125,121,124,124,125,123,124,122,119,119,122,122,120,122,122,120,122,120,122,121,119,119,119,120,123,121,117,117,119,121,120,121,123,122,124,124,120,121,121,117,120,121,122,119,120,120,118,107,118,121,124,124,121,115,114,124,122,121,117,117,117,124,123,119,122,123,126,126,124,120,118,125,123,121,123,122,122,119,122,124,121,120,121,121,120,123,122,134,129,123,122,122,123,124,128,98,112,119,121,122,119,117,113
107,111,116,118,116,117,121,113,129,126,122,118,120,122,119,122,127,123,122,123,122,122,123,124,121,122,121,123,122,121,124,121,120,123,123,125,119,119,116,119,125,122,120,117,119,119,121,120,121,121,120,120,122,121,120,119,121,123,122,126,127,124,121,121,128,125,122,121,120,120,123,124,114,123,124,114,117,122,122,119,126,117,120,124,124,124,123,124,125,126,122,123,123,122,120,122,123,123,122,123,121,119,121,122,119,121,121,119,120,121,123,120,141,127,122,124,123,121,121,127,72,107,116,115,116,119,117,105
134,125,122,123,121,118,122,126,130,125,122,123,123,123,121,122,114,119,120,122,123,122,122,119,118,121,121,116,118,121,121,118,133,123,121,122,122,122,123,123,126,124,121,122,120,119,121,122,124,121,120,122,122,123,124,124,126,122,122,125,123,123,122,122,113,118,118,115,117,116,120,118,125,123,122,124,124,125,123,122,123,123,123,123,123,124,121,121,114,120,119,118,119,117,120,119,120,120,121,121,120,120,121,120,124,122,120,122,122,122,122,121,116,123,121,125,124,122,122,119,138,124,121,120,121,122,121,126
69,107,117,120,117,118,117,105,109,119,120,121,121,119,119,117,130,124,121,122,122,122,126,124,128,125,122,122,122,120,115,123,111,118,120,124,123,123,119,117,120,120,119,115,116,118,123,118,130,123,121,125,122,119,118,122,127,123,122,124,122,122,121,121,121,122,120,120,120,118,121,121,119,120,122,123,122,123,122,120,124,121,120,123,119,116,117,121,101,118,119,120,120,123,124,115,129,126,121,124,122,121,119,124,118,121,121,122,123,122,121,120,140,126,121,123,124,122,123,125,92,111,119,118,119,121,117,110
129,121,118,121,120,118,126,125,123,123,121,123,122,124,124,121,120,122,121,120,122,121,120,119,119,121,121,123,122,121,122,121,135,128,122,122,123,122,123,123,99,109,117,115,115,118,121,114,136,127,123,124,122,118,117,124,136,124,123,123,123,121,121,124,94,114,119,121,120,121,123,113,127,123,120,121,120,119,117,120,125,125,125,123,123,122,123,123,122,122,120,121,122,123,126,120,116,119,120,123,119,121,124,118,125,123,123,124,123,121,121,121,121,122,121,123,122,121,121,120,122,121,119,121,122,121,122,121
122,123,121,118,119,120,121,121,119,121,122,123,122,122,122,120,120,122,121,125,124,123,122,121,135,123,121,117,117,119,120,122,105,113,119,122,120,119,119,114,123,125,122,126,124,125,122,122,100,114,116,113,117,120,120,114,132,124,124,127,123,121,123,125,123,122,120,121,122,122,123,121,111,116,119,121,120,119,115,116,135,125,121,122,122,122,122,126,117,121,121,124,122,120,122,119,76,105,116,120,117,117,120,110,129,124,122,120,123,121,119,121,124,121,121,123,122,123,124,122,124,122,122,123,121,119,120,122
113,121,121,123,124,122,121,116,121,121,121,118,115,116,119,121,123,121,122,124,122,122,119,119,117,120,120,121,123,122,121,119,123,122,121,121,121,122,121,121,131,124,121,124,125,124,124,125,90,118,122,120,118,118,118,110,122,120,121,124,122,122,121,120,126,123,122,124,123,121,122,122,124,123,122,126,121,121,120,123,92,112,116,113,118,119,117,110,140,125,122,122,122,121,126,128,105,118,121,122,119,117,119,113,125,121,120,122,122,123,123,121,131,128,124,124,121,120,123,125,102,115,118,122,120,121,120,115
128,122,121,123,121,122,121,123,125,124,122,124,124,122,119,121,125,123,121,122,121,123,127,122,105,116,119,122,120,119,118,116,120,121,121,121,120,121,121,120,121,122,120,119,121,120,120,122,122,122,121,124,121,121,123,121,120,121,120,121,120,119,120,119,118,121,121,120,121,123,123,120,117,120,120,124,121,120,118,118,117,122,121,120,120,121,124,122,128,125,123,123,122,121,121,121,140,127,123,128,128,126,125,128,65,106,118,112,113,115,117,104,137,128,123,126,125,126,121,124,131,122,121,123,124,125,124,126
129,127,122,123,122,121,123,125,102,116,120,121,120,121,120,113,125,124,122,122,121,119,123,122,121,123,120,122,122,122,122,121,121,120,120,124,124,122,121,120,115,122,123,120,120,122,123,121,116,119,122,124,122,122,120,118,125,123,121,123,123,121,121,120,115,119,120,121,122,122,124,117,128,125,123,125,124,123,119,124,118,121,121,122,118,116,121,118,121,122,121,123,123,124,122,120,126,123,122,125,122,122,121,122,127,125,121,122,124,125,124,124,108,116,118,117,113,116,117,110,131,124,121,126,125,122,123,124
132,125,122,123,122,122,124,125,125,121,119,119,119,118,114,117,134,124,123,122,122,122,120,123,88,111,117,120,120,121,121,112,128,124,122,123,121,121,123,123,124,122,120,121,122,122,124,120,122,122,121,122,122,121,117,119,122,123,121,122,121,121,122,121,118,121,122,126,122,121,121,119,122,122,120,115,119,121,121,122,120,121,121,121,121,121,121,121,117,122,121,123,122,122,120,119,121,121,121,122,121,121,122,121,121,124,131,123,122,121,122,119,118,113,106,117,120,121,120,120,121,123,123,124,122,121,122,121
119,124,128,123,122,121,120,114,120,116,108,117,117,120,122,125,120,121,123,120,118,118,119,121,121,126,131,124,122,123,121,116,119,120,116,124,121,122,124,124,125,125,128,125,128,121,125,129,118,126,134,126,129,126,116,109,122,123,121,124,119,123,121,117,123,126,126,122,125,126,121,124,116,117,111,111,108,109,116,114,121,124,122,124,131,123,121,119,121,123,130,123,119,119,120,119,115,117,113,120,125,123,118,113,127,125,125,119,109,117,124,126,120,121,122,127,126,123,120,118,121,123,123,122,117,114,120,113
118,123,129,127,128,125,123,123,118,116,108,119,118,119,119,118,119,122,118,120,121,122,119,116,122,121,123,122,122,122,123,120,121,120,120,122,121,120,120,123,125,122,121,123,126,121,124,135,115,119,119,119,116,121,124,115,118,120,121,121,121,119,119,122,125,121,122,123,122,123,125,129,122,121,119,121,121,121,122,123,124,124,122,123,123,123,127,135,119,119,120,120,119,121,121,117,123,124,122,123,122,121,121,121,113,122,121,122,120,121,119,107,121,120,121,122,122,121,121,121,123,122,122,123,123,121,122,126
122,121,121,120,120,121,120,123,122,122,121,122,121,122,127,126,118,121,121,122,121,121,117,113,125,121,119,121,121,120,121,122,119,121,120,121,120,121,121,121,120,121,121,121,121,121,121,118,121,122,120,121,121,121,121,122,121,123,122,123,123,121,122,122,120,117,119,120,119,121,122,119,118,122,121,122,121,121,120,122,122,122,121,122,122,123,124,126,120,121,120,122,121,121,121,120,122,122,120,121,120,121,121,120,120,120,120,121,121,122,121,122,117,120,121,121,120,119,118,115,122,122,122,122,121,121,122,120
121,122,121,122,122,121,122,119,121,122,121,122,121,120,121,121,121,122,122,121,119,120,121,122,121,121,121,122,120,120,121,120,121,121,121,122,121,120,121,121,119,121,121,123,121,121,120,118,121,121,121,122,121,122,123,122,121,122,121,122,122,121,120,119,122,122,121,123,122,121,121,122,120,123,120,122,121,121,122,120,120,119,120,121,121,121,121,121,120,120,120,121,121,121,121,120,121,123,121,121,120,121,121,120,121,119,120,122,122,121,123,120,122,124,121,120,120,121,122,124,119,120,121,122,122,122,121,118
120,121,122,122,122,121,120,120,121,120,120,121,121,121,121,120,120,121,120,122,121,121,122,121,122,123,121,121,121,121,122,121,120,121,120,121,120,121,121,121,122,121,121,122,121,121,122,121,120,122,120,121,122,121,121,118,121,119,120,120,119,120,121,119,121,122,121,123,122,121,121,121,121,123,121,121,121,121,121,120,121,122,121,122,121,121,122,121,120,121,121,122,121,122,121,120,119,121,121,122,121,121,122,120,121,122,121,122,121,122,122,121,120,122,121,121,121,121,121,121,120,120,121,122,122,121,121,119
121,122,121,122,121,120,122,121,120,119,119,121,121,121,121,120,122,122,122,122,122,121,120,121,120,124,121,121,121,121,122,120,118,117,121,122,121,121,122,120,122,124,121,122,121,121,120,119,121,121,120,121,121,121,121,120,122,125,122,121,120,121,121,121,122,119,119,121,121,121,123,124,119,118,120,121,121,121,121,118,120,122,121,122,121,121,122,122,122,122,121,122,122,121,120,120,121,121,120,122,121,121,122,122,121,122,121,121,120,121,121,121,120,121,121,123,123,122,121,119,121,122,121,120,119,121,122,121
120,122,122,123,121,121,121,119,120,121,121,122,122,121,122,122,120,123,122,122,121,121,122,120,118,120,121,123,121,120,120,118,122,122,121,121,121,121,121,121,121,123,121,121,121,121,122,120,121,122,121,122,122,121,121,120,120,117,120,122,122,121,121,123,120,122,122,122,121,121,122,121,122,123,121,121,121,121,121,120,122,121,120,121,121,121,121,122,120,122,120,121,121,121,121,118,122,122,120,121,121,121,122,123,118,120,120,122,121,122,121,119,121,122,121,121,120,121,121,122,121,122,121,122,121,121,122,121
120,122,121,122,121,121,121,121,120,122,120,121,121,121,120,118,123,121,120,121,121,121,122,122,122,122,121,122,121,121,121,121,121,120,120,121,120,121,121,121,120,121,121,122,121,121,120,119,121,122,121,122,121,121,122,120,119,120,121,121,121,121,121,120,121,120,120,122,121,121,122,119,122,123,120,121,121,121,122,121,120,118,121,121,121,121,121,120,122,123,120,121,121,121,121,122,119,121,121,121,121,121,120,117,121,121,120,122,121,121,122,120,120,122,121,122,121,120,120,119,121,121,120,121,121,121,122,123
120,121,121,122,122,121,120,118,121,122,122,121,120,121,121,120,119,120,121,122,121,121,121,120,120,122,121,122,122,121,120,118,121,122,120,121,121,121,121,119,121,122,120,121,121,121,122,121,121,123,121,122,122,121,121,119,119,119,120,122,121,121,120,121,121,124,122,122,121,120,121,121,121,121,121,121,120,121,121,121,117,121,121,122,121,121,121,119,121,123,121,122,121,122,123,122,116,118,120,121,121,121,119,114,122,121,121,122,121,121,122,122,122,123,122,122,121,121,122,122,121,121,121,122,121,121,121,122
121,125,120,121,121,121,121,119,119,113,121,122,121,121,121,121,119,123,120,121,121,121,121,119,123,123,121,121,122,122,122,123,121,122,121,122,120,120,121,119,120,121,121,122,121,121,120,120,120,120,121,122,121,121,122,121,120,122,122,122,122,122,121,119,121,121,121,122,121,122,120,119,121,122,122,122,120,120,121,120,121,123,122,122,121,120,121,121,120,119,120,122,121,120,120,120,120,122,120,121,121,121,121,119,120,122,121,122,121,121,122,121,120,121,120,122,121,121,121,120,121,121,121,122,121,121,121,121
122,123,122,122,122,121,122,122,119,119,120,122,121,122,122,120,120,122,121,122,121,120,120,117,121,122,121,122,122,122,121,120,121,121,121,122,121,121,122,122,120,121,121,122,121,121,120,121,120,122,120,121,121,121,121,119,123,122,120,121,121,121,122,121,116,119,120,122,121,121,121,117,122,122,121,122,122,122,121,122,122,122,121,122,121,121,121,120,121,121,121,121,121,121,122,120,116,122,121,122,121,121,121,118,119,118,120,122,120,120,121,122,121,124,121,122,121,121,121,120,121,119,120,121,121,121,121,119
120,123,121,122,121,120,121,122,121,122,120,121,120,121,122,121,121,122,121,121,121,121,121,120,119,117,119,121,121,121,121,120,120,122,121,122,121,121,121,120,122,124,121,121,121,121,122,122,120,118,119,121,121,121,122,122,120,123,122,122,120,121,120,119,121,122,121,122,121,121,120,119,121,121,120,121,121,121,122,121,121,122,120,121,121,121,122,121,121,122,121,122,121,121,122,122,121,122,122,122,122,121,121,121,120,122,122,121,121,121,121,119,119,121,121,122,121,121,120,118,120,119,120,122,121,121,121,121
122,122,121,122,121,120,121,123,121,123,122,122,122,120,120,119,122,123,121,122,121,121,122,120,120,116,120,122,121,121,122,121,122,123,122,122,121,122,121,121,121,122,121,122,121,121,121,119,122,122,120,121,121,121,121,120,120,122,120,121,121,121,121,121,122,123,121,122,121,121,121,121,119,118,120,122,122,121,120,119,121,124,122,122,121,120,121,120,120,120,121,122,121,121,122,120,120,122,120,122,121,121,120,120,119,117,120,122,121,120,121,121,121,122,120,122,121,121,120,119,120,122,121,122,121,120,121,119
122,122,122,122,120,120,121,121,120,122,120,121,121,121,121,119,121,120,120,121,120,121,122,121,119,121,121,121,120,121,120,118,121,120,120,122,121,121,122,122,119,120,121,122,122,121,122,120,124,123,121,122,122,122,121,121,115,117,120,122,121,122,121,119,121,120,119,121,120,121,121,121,122,123,121,122,121,121,122,121,121,123,121,122,121,122,121,120,121,122,121,122,121,121,121,120,118,121,121,122,121,122,121,119,120,118,121,122,120,120,121,121,121,123,121,122,122,122,122,121,121,122,121,122,121,121,121,121
120,121,121,122,121,121,123,122,120,121,120,121,121,121,121,120,120,122,120,121,121,121,121,121,119,119,121,122,121,121,121,120,122,122,120,122,121,122,122,122,120,121,121,122,121,121,121,120,121,121,120,121,121,120,121,120,121,122,122,123,122,121,121,121,123,124,123,122,121,120,121,120,114,118,120,121,120,121,121,119,122,118,118,121,121,121,121,121,119,122,120,121,121,121,121,120,122,120,120,122,121,121,122,121,121,123,121,123,121,120,121,120,121,123,121,122,121,121,122,120,118,116,119,121,121,121,121,121
121,123,121,122,121,121,122,120,122,122,121,121,121,121,122,120,121,121,121,122,121,122,121,119,121,121,120,121,121,121,122,121,121,122,121,122,121,122,122,120,121,122,121,122,121,120,121,121,121,122,121,122,120,121,121,120,121,122,121,122,121,122,122,121,121,123,122,122,122,122,122,120,118,117,119,121,121,120,120,122,119,121,121,121,121,121,120,117,121,121,121,122,121,121,121,119,121,123,121,122,121,122,123,121,120,122,121,122,121,120,121,120,119,121,121,122,121,121,122,120,122,122,120,121,120,121,122,122
119,120,121,121,121,121,120,116,122,122,121,122,121,121,122,120,120,121,121,122,122,121,121,121,121,123,121,122,122,121,121,121,121,122,121,121,120,121,121,121,118,117,119,121,121,121,120,119,121,121,121,122,121,121,122,122,122,122,121,121,121,121,121,118,120,126,121,122,121,121,122,122,119,112,118,121,121,121,121,120,122,127,122,122,121,121,122,121,120,122,121,122,121,121,121,120,119,121,121,122,121,122,122,120,120,121,121,122,122,121,121,121,122,120,121,121,121,121,122,121,120,121,121,122,121,122,121,120
117,119,121,122,121,121,121,121,120,121,121,122,121,121,120,116,122,123,121,121,120,121,121,122,121,121,121,122,121,121,122,122,118,117,121,122,121,120,120,117,121,125,121,122,122,121,121,121,121,120,121,122,121,121,121,120,121,124,122,122,120,121,121,121,121,123,121,121,120,121,121,121,119,116,119,120,120,121,121,119,122,123,120,121,121,121,121,121,121,122,121,122,121,121,122,121,119,123,120,121,121,121,121,120,122,118,120,121,121,121,122,121,120,121,120,121,121,121,121,119,122,123,122,122,120,121,121,121
121,121,121,123,122,122,121,121,121,121,121,122,121,120,120,120,120,122,122,122,121,121,121,121,119,120,121,122,121,121,121,120,120,121,120,122,121,121,121,120,121,122,122,121,120,121,121,120,120,121,121,122,122,121,121,120,121,122,121,122,121,121,122,121,120,123,121,122,121,121,121,120,120,114,120,122,122,121,120,119,121,124,121,122,122,121,121,120,120,121,121,122,121,121,120,118,120,121,121,121,120,121,122,121,119,121,121,122,121,121,122,120,120,125,122,122,120,121,121,120,119,115,121,122,121,121,121,121
121,125,121,121,120,121,121,121,120,122,121,123,121,120,119,116,121,121,121,121,121,121,122,123,122,122,121,121,120,121,122,122,120,122,121,121,120,121,121,119,121,121,121,121,121,121,121,119,119,123,122,122,122,122,121,121,119,118,119,122,121,120,120,120,121,121,122,122,122,121,121,121,123,124,122,122,121,122,122,120,117,121,120,122,122,121,121,120,119,118,120,122,122,121,120,118,121,123,121,121,120,121,121,120,121,121,120,121,121,121,122,122,122,123,121,122,122,121,121,120,120,120,121,122,122,122,122,122
120,120,120,121,120,121,121,121,121,122,121,121,121,121,121,121,121,122,120,121,121,121,122,120,120,120,121,122,121,121,121,119,119,121,121,122,121,120,120,116,120,121,121,122,121,122,123,121,119,121,121,122,121,122,121,121,120,122,121,122,121,120,121,120,120,121,120,122,121,121,122,121,120,121,122,122,120,121,121,122,118,118,119,122,121,121,119,114,121,122,121,122,121,122,121,119,122,125,122,122,121,122,121,121,119,116,120,121,120,121,122,122,122,125,122,122,120,121,122,122,119,122,120,121,121,121,121,120
118,120,121,122,122,121,119,115,122,121,121,121,121,121,123,122,121,122,121,121,121,121,122,120,120,121,121,122,122,121,120,119,121,120,121,122,121,122,121,120,121,125,120,122,121,121,122,121,119,116,119,121,121,121,121,120,120,122,120,121,121,121,121,120,120,121,121,122,121,122,121,120,121,123,121,121,120,121,121,121,120,123,121,121,121,121,120,119,120,120,121,122,122,121,121,119,119,119,120,121,121,121,121,120,121,123,121,122,121,120,120,120,121,122,121,122,122,121,122,121,119,120,120,121,121,121,121,120
122,121,121,121,120,121,122,121,122,123,122,122,122,121,121,121,121,123,121,121,121,121,121,121,119,120,121,122,121,121,122,120,123,127,121,121,121,121,122,122,116,114,119,121,121,121,120,118,116,123,121,122,122,120,119,113,124,122,122,121,121,121,122,123,122,124,121,122,122,121,121,121,120,120,121,122,121,120,121,120,118,120,121,122,122,121,120,116,123,122,120,121,121,121,122,121,121,123,121,122,121,122,122,120,119,120,121,121,120,120,121,120,119,121,120,121,121,121,121,121,122,124,122,122,121,122,122,121
120,122,121,122,121,120,121,119,121,121,120,121,121,121,122,121,118,120,120,121,121,121,122,120,121,123,122,122,121,121,121,121,122,122,120,121,121,121,122,121,119,120,121,122,122,121,120,120,119,120,121,121,121,121,121,120,121,122,121,122,122,122,121,120,123,124,122,122,121,121,121,121,118,121,121,122,121,121,123,119,120,116,119,121,121,121,122,121,121,123,121,122,122,122,122,120,121,123,122,122,122,121,121,122,121,123,120,122,121,121,121,118,119,118,120,122,121,121,122,120,122,124,121,122,122,122,121,120
120,118,121,122,121,121,120,120,122,124,121,121,121,121,122,122,120,120,120,121,120,121,121,120,120,122,121,122,121,121,122,121,121,122,120,122,121,121,121,121,121,122,122,123,121,121,122,121,120,122,121,122,121,120,121,120,123,124,122,122,121,121,121,122,118,126,122,121,120,120,121,120,119,111,118,121,121,121,121,119,121,127,122,122,122,121,120,121,120,122,121,122,121,121,122,120,120,121,121,122,121,121,121,120,122,123,122,122,122,122,121,121,118,117,120,121,121,121,121,118,120,122,120,122,120,120,122,122
120,123,121,122,121,121,121,119,119,119,120,121,121,121,121,121,120,120,121,122,122,121,121,119,120,123,122,122,121,120,121,120,120,121,121,122,122,122,121,120,121,122,122,122,122,121,121,120,120,121,121,122,122,121,121,119,121,121,121,122,121,121,121,120,122,122,121,121,121,121,122,123,120,123,121,121,120,121,121,118,120,123,121,121,120,121,122,121,119,116,120,122,121,122,122,120,121,123,120,121,121,121,121,121,121,123,121,121,121,121,122,121,121,123,121,122,122,121,120,120,119,118,121,122,121,121,121,120
120,120,120,122,121,121,122,119,120,124,121,121,121,121,121,120,119,120,120,121,121,121,121,120,120,121,120,121,120,121,121,119,120,120,121,122,121,121,121,122,121,123,122,121,120,120,121,119,122,120,120,121,121,121,121,120,121,122,121,122,121,122,121,121,120,124,121,122,122,122,121,120,121,120,120,121,121,121,121,121,121,119,120,121,120,121,121,121,119,124,121,122,121,121,121,119,119,122,121,122,120,121,121,119,121,122,121,122,122,121,121,121,121,121,121,122,122,121,121,120,119,121,120,122,121,121,121,120
120,119,120,122,121,121,122,121,119,120,120,122,121,121,121,120,122,124,121,121,120,121,121,121,121,119,121,122,121,122,122,121,119,122,120,121,121,121,122,119,120,119,119,121,120,120,121,121,122,122,122,123,122,121,121,120,121,121,121,122,121,122,122,121,121,122,121,121,121,121,122,123,120,120,121,122,121,121,121,119,122,122,121,122,122,122,122,119,117,120,121,122,121,122,122,122,122,122,122,122,122,121,122,120,122,122,120,121,121,121,122,120,120,119,121,122,121,121,121,118,121,121,121,122,121,120,121,121
121,122,121,122,121,122,121,120,121,122,121,122,121,122,122,121,118,120,120,121,121,121,121,119,121,121,121,122,121,121,122,121,121,123,121,122,121,121,122,120,119,120,121,121,120,121,121,120,121,124,120,122,122,121,121,121,119,114,121,122,122,122,121,119,118,121,119,121,121,121,121,120,122,124,122,123,121,121,121,120,120,121,121,122,121,121,121,119,121,122,121,121,121,121,121,122,120,122,121,122,121,121,122,120,121,123,121,121,121,121,122,122,118,117,120,121,121,121,121,121,120,122,120,122,120,120,121,119
122,122,122,122,120,121,122,122,122,122,120,121,121,121,122,121,119,120,120,121,121,122,121,121,120,121,120,121,121,121,120,118,121,122,121,121,120,120,121,120,122,122,121,122,122,120,120,121,119,121,121,122,122,122,122,120,120,123,122,122,120,120,120,119,119,121,120,121,121,121,121,120,120,116,121,123,121,121,123,122,122,124,121,121,122,121,122,120,121,121,121,122,121,121,122,121,122,122,121,121,121,121,122,121,120,122,121,122,121,120,120,118,120,123,121,122,121,121,121,120,121,121,121,122,121,120,121,120
120,120,121,122,121,121,121,120,122,122,120,121,121,121,121,121,120,123,121,122,122,122,121,119,121,122,121,122,122,121,121,120,121,120,120,121,121,121,122,121,121,122,121,121,121,120,121,120,120,121,121,122,122,121,122,121,120,123,122,122,122,121,120,119,120,121,120,121,121,121,121,121,120,120,121,121,121,121,123,121,122,123,121,122,121,121,122,121,120,121,120,122,121,121,121,119,121,122,121,122,121,121,122,121,121,120,121,122,122,121,120,120,118,120,121,122,121,121,120,118,121,121,121,122,121,121,122,121
122,123,120,122,121,121,122,122,122,124,121,121,121,121,121,120,119,121,121,121,121,121,121,120,121,120,122,122,122,122,121,121,119,121,120,122,121,121,121,120,124,123,121,122,120,120,122,122,120,120,120,121,121,122,121,116,120,121,120,122,121,122,122,119,121,123,122,122,121,121,121,121,120,121,121,122,121,121,122,120,120,121,121,121,121,121,121,120,121,122,121,122,122,121,121,121,121,122,120,121,121,121,121,119,120,119,121,122,122,121,121,121,122,124,120,121,121,121,121,120,121,122,121,122,120,120,121,120
122,123,121,122,121,121,122,122,118,118,120,122,121,121,121,119,119,117,119,121,121,121,121,121,122,122,121,121,121,121,122,122,122,124,122,122,122,122,122,121,121,121,120,122,121,121,122,123,118,119,120,121,121,121,121,117,122,122,120,122,120,121,121,121,120,121,121,122,121,121,121,121,121,122,121,122,121,121,121,118,120,123,121,122,122,121,120,119,121,119,119,121,121,121,122,122,122,122,121,122,122,122,121,120,121,122,122,123,121,121,121,122,121,123,121,121,121,121,121,119,121,120,119,121,121,121,122,121
118,118,120,122,121,121,121,120,121,123,122,121,120,121,122,121,121,123,121,121,121,121,121,118,121,121,121,122,121,120,121,120,121,122,121,122,120,120,121,120,120,121,121,122,122,122,122,121,121,122,122,122,122,121,121,120,121,122,121,121,120,121,122,120,121,121,121,122,121,120,121,121,119,120,121,122,121,121,120,119,121,122,121,121,121,121,121,121,122,121,120,121,121,121,121,121,119,124,122,121,121,121,122,120,122,118,121,122,121,120,121,122,116,119,119,121,121,121,122,117,124,127,123,122,122,122,121,121
121,120,121,121,120,121,121,121,121,122,121,122,120,121,121,120,120,120,120,122,122,121,120,119,121,122,122,122,121,121,122,122,121,122,120,121,121,121,122,122,120,121,121,122,121,121,121,119,120,120,120,121,121,121,123,121,120,121,121,122,122,121,118,117,122,121,120,121,121,121,122,122,121,122,122,121,120,120,121,121,120,121,120,122,121,121,123,121,120,121,121,122,121,121,120,120,122,123,121,122,122,123,124,122,119,117,121,121,120,120,121,119,122,124,122,122,121,121,121,120,120,121,122,122,121,120,120,120
121,121,119,121,121,122,122,120,118,120,121,122,121,121,121,120,119,120,120,121,121,121,121,120,121,120,120,121,121,121,121,121,121,123,120,122,121,121,122,119,120,118,121,122,120,121,121,121,118,123,119,121,121,121,121,121,121,119,122,121,121,122,123,123,121,124,122,122,120,121,120,117,121,121,122,122,121,120,121,121,118,120,121,122,121,120,121,118,120,122,121,122,122,122,121,120,122,122,121,121,121,121,122,120,121,121,121,121,121,121,120,121,121,123,122,122,120,120,121,120,121,123,120,121,121,121,123,123
121,119,121,122,121,120,120,119,120,122,120,121,122,122,121,119,121,125,122,123,121,121,122,121,118,115,120,121,120,121,121,120,122,124,121,122,121,121,122,120,120,121,121,122,121,121,121,119,122,126,121,122,122,121,121,120,119,114,121,122,121,121,121,121,121,124,120,122,121,120,121,121,121,123,121,122,120,121,121,120,120,121,121,122,121,121,121,121,120,123,122,122,121,121,122,121,121,120,120,122,121,121,121,120,121,122,121,122,122,121,121,120,118,120,121,122,121,121,121,119,123,123,121,122,122,121,121,120
116,120,120,122,121,121,121,119,121,119,120,121,121,121,122,122,121,122,121,122,122,122,121,119,122,122,122,121,120,121,121,123,121,122,121,122,121,120,121,119,120,120,121,122,121,120,121,119,121,121,121,122,121,121,122,121,120,122,121,122,121,121,122,121,122,129,122,122,121,121,122,121,119,111,119,121,121,121,121,120,119,122,120,121,121,120,120,119,123,124,121,121,121,121,122,121,120,122,121,122,121,121,122,121,120,121,121,122,122,121,121,120,121,121,121,123,121,121,121,121,120,121,120,121,121,122,122,119
120,121,121,122,121,121,121,120,121,123,121,122,121,122,122,121,123,120,121,122,122,122,121,121,114,120,120,121,121,121,120,115,122,120,120,122,121,122,123,122,123,124,121,121,121,120,121,121,119,121,121,121,121,121,121,118,121,121,120,122,121,122,123,121,121,121,121,122,121,122,121,120,122,122,122,122,120,120,120,119,121,124,122,122,122,122,123,121,119,114,119,121,121,121,121,120,121,123,121,122,121,121,121,119,122,124,122,123,122,121,121,120,121,122,122,122,121,122,122,122,121,122,121,122,120,121,121,120
119,120,121,122,121,120,120,120,121,124,122,121,120,120,121,121,120,117,120,121,121,121,121,121,121,123,120,121,121,121,122,120,120,120,121,122,122,121,121,121,122,123,121,122,121,121,121,119,117,123,120,121,120,120,121,117,116,112,119,121,121,121,121,120,125,128,122,121,122,121,122,121,121,123,121,122,121,121,121,120,120,121,121,122,121,121,121,120,120,121,120,121,121,121,122,120,121,122,122,122,121,120,121,120,120,121,121,122,121,121,121,120,120,121,121,121,121,121,121,121,121,124,121,122,122,121,120,119
121,120,121,122,122,122,122,120,120,123,121,122,121,121,121,120,120,121,121,122,121,121,120,119,121,122,120,121,121,121,122,122,119,121,122,122,121,121,122,121,119,121,121,122,121,120,121,120,121,122,121,122,122,122,121,119,122,122,120,121,121,121,121,121,121,122,121,122,121,122,122,121,119,120,121,121,120,121,121,120,120,121,121,122,122,121,121,119,121,121,121,122,122,121,121,119,122,123,121,121,120,121,121,122,119,118,120,121,121,121,122,120,121,122,120,121,121,121,122,121,121,122,121,121,121,121,122,121
120,120,120,122,121,121,122,122,121,121,120,122,121,122,121,119,121,121,120,121,121,121,122,121,120,122,121,122,122,121,121,119,121,122,121,122,121,121,122,122,119,118,120,121,122,121,121,120,121,122,121,122,121,122,122,122,122,123,121,121,120,121,121,121,120,121,121,122,121,122,120,117,121,121,120,121,121,121,123,123,121,122,121,122,121,120,121,120,121,121,120,121,121,121,121,121,121,122,121,122,120,120,121,120,121,123,122,122,122,121,121,120,121,121,120,121,121,121,122,121,118,119,120,122,121,121,122,120
122,124,121,122,121,121,121,122,121,122,120,121,121,121,122,121,122,123,121,122,121,121,122,121,119,117,120,121,121,121,121,121,119,120,119,121,120,121,121,121,123,123,121,121,121,121,122,121,117,122,121,121,121,121,120,118,120,119,121,122,122,121,121,117,121,123,122,122,121,122,122,122,122,122,120,121,121,121,122,121,119,118,120,121,120,120,120,118,120,121,121,122,121,121,122,122,120,121,121,122,121,122,121,120,121,122,121,121,121,121,122,121,118,120,121,121,121,121,121,117,121,122,121,122,121,121,121,122
121,122,121,122,121,121,121,120,120,120,120,122,121,121,121,120,122,124,121,122,122,120,121,121,118,116,120,122,122,121,121,121,116,118,120,122,121,121,121,117,123,124,122,122,122,122,122,121,122,122,121,121,121,121,122,121,120,123,120,122,122,121,121,119,119,116,119,121,121,121,121,121,121,123,122,121,121,121,122,122,122,124,121,121,120,121,121,119,119,119,120,122,121,122,122,121,121,122,121,121,120,121,121,120,120,120,121,122,121,121,121,121,122,124,122,122,121,121,122,121,119,124,121,121,121,121,121,121
119,113,119,121,121,120,120,119,120,125,121,122,122,122,121,120,122,123,121,122,121,121,122,122,120,118,120,122,121,121,122,121,119,121,121,122,121,121,121,118,123,121,121,122,122,121,121,123,121,122,120,122,121,121,122,120,120,120,121,122,121,121,122,122,121,122,121,122,122,121,121,120,120,121,121,122,121,120,120,120,121,123,121,122,121,121,122,121,121,119,121,122,121,121,120,118,120,123,121,121,121,121,122,121,121,120,122,122,121,121,121,121,119,121,120,122,121,120,121,120,120,120,121,121,121,121,121,120
123,123,122,122,121,122,122,121,121,122,120,121,121,121,121,122,119,118,119,120,120,120,121,120,121,123,121,122,122,121,121,120,123,123,121,121,120,121,122,121,120,121,121,122,121,121,122,121,121,119,120,122,122,120,121,119,115,121,120,121,121,121,121,116,121,121,121,122,121,121,121,120,121,122,122,122,121,122,122,121,120,129,121,122,121,121,121,120,117,105,119,121,121,121,121,120,121,127,121,121,121,121,122,121,121,123,122,123,121,120,121,121,121,122,120,121,121,121,120,120,120,122,121,122,121,120,122,120
120,121,120,121,120,121,121,120,120,120,121,122,121,121,121,120,122,123,121,122,121,122,122,121,120,120,119,121,121,121,121,118,120,119,119,121,121,121,121,122,121,123,121,122,121,122,121,121,120,122,122,122,121,121,122,121,120,121,121,122,121,122,120,120,120,121,120,121,121,121,121,119,120,121,121,123,121,121,122,121,120,121,120,121,121,121,121,122,121,122,121,121,121,121,121,120,121,122,121,121,121,121,121,119,121,121,121,122,122,121,120,121,120,121,121,122,121,120,121,121,121,123,120,122,121,121,122,120
121,123,121,122,122,121,122,118,118,119,120,122,120,120,120,120,119,116,118,120,121,121,121,119,123,126,122,122,121,121,122,121,121,123,121,121,121,121,121,120,120,121,121,122,121,120,121,121,121,122,122,122,122,121,121,120,121,121,122,122,121,121,122,121,121,122,121,122,122,121,122,118,121,122,121,122,121,120,120,121,121,122,121,122,121,120,121,120,121,121,120,122,121,121,121,120,121,121,121,122,120,120,121,122,120,122,121,122,121,121,120,118,119,121,121,121,121,121,122,120,122,123,119,121,121,121,121,121
118,115,120,122,122,120,121,119,123,123,122,122,122,122,122,122,120,123,121,122,121,121,121,119,120,123,121,122,121,120,120,119,120,122,120,121,120,121,121,121,122,121,121,122,121,122,122,122,119,119,120,121,121,121,122,120,119,119,119,121,121,121,121,120,122,124,122,122,121,121,121,120,122,123,121,121,121,121,122,120,119,118,120,121,120,120,121,120,122,122,120,122,121,121,122,121,120,121,122,122,122,121,120,119,121,121,121,122,121,121,122,121,120,122,121,122,121,121,121,119,121,120,120,122,121,121,122,121
120,121,121,122,121,121,121,120,119,121,121,122,121,121,121,120,121,123,121,122,121,120,121,120,119,121,120,121,121,121,121,119,122,118,120,122,121,121,122,122,121,124,121,122,122,121,121,120,121,120,120,121,121,121,122,121,121,122,120,122,121,121,121,120,119,121,121,122,122,121,121,120,121,122,121,122,121,122,122,121,120,121,121,122,122,121,121,120,122,122,122,122,122,121,120,120,122,123,121,121,121,121,122,122,120,120,120,122,121,121,121,120,121,123,122,122,121,121,121,120,120,121,120,121,121,121,122,120
119,119,121,122,121,122,122,120,121,122,121,122,121,122,122,119,120,121,121,121,121,121,122,120,122,122,120,121,121,121,121,120,121,122,122,122,121,121,121,120,120,121,120,121,121,121,121,122,120,120,121,122,121,121,121,119,121,120,121,122,122,121,122,120,120,124,120,121,121,121,122,121,121,117,121,122,120,121,121,120,121,125,122,122,121,122,121,120,120,122,121,121,121,121,121,121,120,122,121,121,120,121,121,120,120,121,121,122,121,121,121,121,121,121,120,121,121,121,121,123,119,121,121,122,121,121,121,117
121,120,120,122,121,121,121,123,122,122,121,122,121,121,121,122,119,120,120,122,121,121,121,119,122,121,121,122,121,121,121,121,121,122,120,121,121,121,122,121,121,121,120,121,121,120,122,121,121,122,121,122,121,121,120,120,120,122,120,121,121,121,122,120,120,119,120,121,121,121,122,120,121,123,121,122,121,122,121,119,118,120,121,122,122,121,121,120,122,122,120,121,121,121,122,121,122,122,121,121,120,121,121,121,121,124,121,121,120,121,121,120,120,119,121,123,122,120,121,119,120,122,121,122,122,121,121,120
118,120,120,122,121,121,121,119,122,123,122,122,121,121,122,122,121,122,120,121,121,121,121,122,119,118,120,122,121,121,121,119,122,122,121,122,121,121,121,122,117,121,121,122,121,122,121,120,118,116,119,121,121,121,121,118,123,125,122,123,121,121,121,120,123,123,121,122,121,121,122,123,119,120,121,122,122,121,121,119,119,121,121,123,122,121,120,118,122,121,120,121,121,121,122,122,121,122,121,122,121,121,122,121,120,121,121,122,121,121,121,121,120,121,121,122,122,122,121,121,120,121,120,121,121,121,121,121
120,121,120,121,121,121,121,121,119,120,120,122,121,121,120,118,121,120,120,121,121,121,122,121,121,122,121,122,121,121,122,121,121,125,121,122,121,121,122,121,118,112,118,121,121,121,120,119,122,124,121,121,121,121,121,121,121,123,122,122,121,121,121,120,121,122,121,122,122,121,121,121,121,122,121,121,120,120,121,121,117,119,120,122,121,121,122,120,123,123,121,122,122,121,121,121,120,121,121,122,121,122,120,119,120,120,120,121,121,121,122,121,120,121,121,122,121,121,121,119,122,122,120,122,122,122,122,121
119,117,120,122,121,121,122,122,120,121,120,121,121,121,120,119,122,119,120,121,121,121,121,121,121,122,121,122,122,122,122,120,122,124,122,121,121,121,121,121,120,120,120,121,121,121,121,121,119,119,119,121,121,121,122,120,120,123,121,122,121,121,121,120,121,123,121,123,121,121,122,120,121,122,120,121,121,121,122,122,117,119,120,122,121,121,121,118,122,122,120,121,121,121,121,121,121,120,120,121,121,121,122,121,121,122,121,122,122,122,121,120,121,121,121,122,121,121,120,119,120,121,121,122,120,121,121,119
120,120,121,122,121,120,121,121,121,122,121,121,121,121,122,121,122,126,122,122,121,120,120,120,119,113,120,121,121,121,122,121,122,124,120,121,120,120,121,119,120,123,122,123,122,121,122,121,121,122,121,122,122,121,121,120,120,121,121,122,122,121,122,120,120,121,120,121,121,121,122,121,121,121,120,122,121,121,122,121,118,122,121,122,122,121,121,119,120,118,119,121,121,121,121,120,121,122,121,121,121,121,122,122,120,123,122,122,122,121,122,121,120,119,119,121,121,121,122,120,119,120,121,122,121,121,121,119
122,123,122,122,121,121,122,122,123,124,121,122,121,122,121,119,119,116,120,121,121,121,121,119,118,119,119,121,121,121,121,119,124,125,122,122,121,121,122,122,121,122,121,121,120,121,121,121,121,121,121,122,121,121,122,123,120,121,121,122,121,121,120,119,119,120,120,121,121,121,121,120,120,121,121,122,121,121,122,121,121,122,121,122,122,121,120,120,120,121,121,122,122,122,121,120,120,121,120,122,121,121,121,119,119,120,120,122,121,121,121,119,121,122,122,122,122,121,121,121,119,121,121,122,122,121,121,120
120,120,121,122,121,121,121,120,120,121,121,122,121,121,121,119,119,122,120,121,121,121,121,119,120,122,120,121,121,121,121,121,122,121,121,122,122,122,122,123,119,120,120,121,121,121,120,116,123,123,121,122,121,122,122,121,119,120,121,122,121,121,121,121,121,122,122,122,121,121,122,122,122,123,121,121,121,122,122,122,119,117,119,121,121,121,121,120,122,123,122,122,121,121,121,121,120,123,120,122,121,122,121,120,119,114,120,122,121,121,121,120,122,125,121,121,121,121,122,120,121,123,122,122,121,121,121,120
120,121,121,122,121,121,121,120,121,123,122,122,121,121,122,121,121,120,120,121,121,121,122,121,120,121,120,121,120,121,121,120,121,123,122,122,120,121,122,120,121,122,122,122,121,121,122,121,120,120,119,121,121,121,121,120,120,123,121,122,121,121,120,120,121,122,122,121,121,121,121,121,122,123,121,121,121,121,122,121,121,122,122,122,121,121,121,121,120,121,121,122,121,121,121,120,122,121,120,121,121,121,121,121,121,122,121,122,121,120,121,120,122,122,121,122,121,120,121,120,119,121,121,121,120,121,121,120
120,117,120,121,121,121,121,121,120,123,121,122,122,122,122,121,122,123,121,121,121,121,121,120,122,122,121,122,122,122,122,120,117,122,121,122,122,121,121,120,120,120,120,122,121,121,121,120,121,119,120,121,121,121,122,121,122,123,122,122,122,121,122,122,119,122,120,122,121,122,121,119,118,117,121,122,121,120,120,119,122,123,121,122,121,120,121,121,122,122,121,121,121,121,122,122,120,122,121,122,121,120,121,119,120,121,120,121,121,121,122,121,121,122,121,122,122,122,121,121,119,120,120,122,121,121,121,119
122,123,121,122,121,121,122,122,120,122,121,122,121,121,121,120,118,120,121,122,122,121,120,118,123,124,122,122,120,121,121,122,118,119,121,121,120,121,121,120,122,125,121,122,121,120,121,120,120,116,120,121,121,121,121,119,122,125,121,122,122,121,121,119,122,123,122,122,121,122,121,120,120,120,120,122,121,121,122,121,117,118,120,122,121,121,121,120,122,123,121,122,121,120,121,119,120,121,121,122,121,121,122,120,121,122,122,123,121,120,121,121,121,121,121,121,121,121,121,121,121,122,122,122,121,120,121,121
119,121,121,122,121,121,122,119,122,122,122,122,121,121,122,122,119,120,121,121,120,121,122,120,122,122,121,121,121,121,121,120,119,121,121,122,121,121,122,119,122,121,121,122,121,121,121,121,120,122,121,122,121,121,122,120,121,122,120,122,121,121,121,119,118,119,121,121,121,121,122,120,121,118,119,122,121,121,121,121,122,123,122,122,122,122,121,120,118,124,120,122,121,122,121,119,119,116,121,121,121,121,121,119,121,125,121,122,121,121,120,119,120,120,121,122,121,120,121,120,118,121,121,121,121,122,120,120
122,122,121,122,121,119,113,117,121,122,120,121,121,121,123,122,121,122,121,121,121,122,123,121,122,123,122,121,122,122,119,121,121,122,122,122,120,119,121,121,122,122,121,121,120,118,121,118,120,121,121,122,121,121,115,118,121,121,120,122,122,125,130,121,121,120,120,120,120,121,124,121,121,122,121,122,121,123,121,120,119,121,121,122,122,120,119,113,120,120,121,122,121,122,123,120,121,123,121,122,121,120,120,122,120,121,121,121,121,121,120,117,122,124,122,123,121,120,121,120,119,117,119,121,121,121,121,120
123,123,121,122,122,122,124,125,121,123,122,123,123,121,121,116,123,122,122,121,119,122,128,130,118,121,120,123,123,120,112,109,122,122,121,121,121,122,125,124,119,121,121,122,121,121,122,119,121,120,120,121,119,121,125,127,120,121,121,122,121,121,119,121,122,121,122,121,120,121,123,121,121,123,121,122,121,124,127,120,120,122,121,122,121,117,119,121,120,122,121,121,120,120,120,117,121,121,120,123,124,122,127,124,117,120,120,121,120,121,118,113,124,124,122,123,118,118,127,126,121,121,120,122,124,121,114,114
122,119,121,122,123,125,131,126,119,123,123,123,120,121,120,127,120,124,123,123,126,120,121,112,117,120,120,122,121,124,124,114,124,122,122,125,124,121,124,118,126,123,120,120,124,122,134,138,116,121,122,122,120,118,111,111,117,119,119,120,120,115,133,119,120,121,121,121,120,121,116,122,115,119,119,120,118,117,117,113,119,122,122,124,125,117,115,129,125,123,122,120,119,126,142,134,109,118,119,118,116,113,105,96,131,126,122,118,114,119,125,141,124,122,121,122,121,119,114,127,119,120,119,122,127,117,96,116
126,124,123,123,124,124,140,135,110,113,122,124,118,142,146,146,118,127,125,121,115,122,109,74,120,121,119,120,123,125,131,125,123,118,119,120,118,115,110,140,120,122,121,122,120,121,97,117,118,122,121,123,123,120,133,112,125,122,120,119,117,116,111,123,120,118,119,121,122,117,121,146,124,124,122,121,118,121,125,116,116,121,121,122,121,119,111,135,131,123,121,128,141,124,136,142,124,123,122,121,116,123,112,110,121,123,123,124,125,121,128,108,117,120,120,122,122,122,126,120,132,123,120,119,118,117,116,189
127,125,120,118,116,123,139,160,115,124,125,126,129,136,125,210,132,125,119,119,120,120,117,242,124,120,122,124,123,120,131,240,115,122,119,117,117,115,107,242,127,120,119,119,118,115,118,178,114,121,122,124,123,119,116,136,123,123,122,120,116,124,127,124,114,118,117,118,125,115,116,122,126,115,121,125,126,126,136,121,120,125,121,117,120,125,129,121,119,120,121,120,112,117,123,120,129,125,120,117,123,122,116,120,117,116,118,122,124,125,123,120,121,122,121,124,127,118,103,120,123,123,121,121,121,122,124,121
113,120,121,122,118,127,122,121,134,122,120,121,121,124,133,120,112,121,121,122,122,119,116,120,105,115,119,121,122,118,118,121,132,126,123,122,119,123,140,120,137,126,122,124,127,129,145,119,113,124,124,123,121,123,121,120,120,119,121,122,122,119,102,120,123,122,121,122,122,122,136,120,124,122,122,125,128,119,140,120,114,117,121,128,137,119,105,121,123,123,122,123,118,121,108,120,119,120,121,120,119,117,109,121,120,122,121,123,122,119,119,120,123,122,122,124,122,128,135,119,114,118,119,120,121,120,108,120
120,122,122,123,122,123,132,121,122,123,121,123,123,121,125,120,120,120,119,118,115,118,110,120,122,122,122,123,129,128,129,120,121,125,122,123,122,123,119,121,100,110,118,124,123,120,102,120,131,125,122,122,123,125,139,120,125,122,120,123,126,124,128,121,116,123,123,125,125,121,95,120,123,118,120,121,120,123,133,121,116,119,119,121,115,120,115,121,117,120,119,117,119,121,116,121,128,125,124,126,122,128,126,119,120,120,120,122,121,125,127,120,123,122,122,123,121,121,121,121,124,122,120,119,115,122,129,120
119,122,123,126,124,123,103,120,121,120,121,122,122,121,119,121,120,120,120,122,122,122,127,121,126,123,119,117,114,123,138,120,120,123,122,120,116,123,130,120,120,121,121,122,121,118,124,120,129,122,122,123,126,125,142,119,114,119,118,119,118,113,96,121,127,126,124,123,122,124,125,120,113,117,119,122,122,121,120,120,118,123,122,122,122,121,116,121,118,121,121,123,123,121,121,121,123,121,122,124,120,120,112,121,118,120,118,112,115,119,142,120,121,122,119,121,121,123,120,121,124,123,122,123,124,128,132,120
115,121,122,122,118,122,125,120,125,122,120,117,107,124,128,121,125,121,121,125,130,123,117,121,125,123,122,122,118,120,129,120,118,122,122,123,120,120,121,121,121,123,122,123,119,122,129,120,116,118,119,122,124,118,116,120,118,121,120,122,121,119,108,121,124,121,121,121,120,121,133,119,119,121,121,120,119,122,120,120,129,123,121,122,120,122,128,121,114,121,120,122,122,118,121,120,122,116,119,120,119,125,132,119,132,130,126,128,138,126,127,120,118,123,121,123,123,122,117,121,114,118,119,119,118,119,123,121
124,122,121,122,120,121,122,121,120,120,121,122,118,121,125,120,119,121,120,121,121,117,118,120,128,125,123,123,120,121,135,119,118,122,121,118,117,120,123,120,122,121,122,122,121,121,130,120,120,121,121,122,121,122,118,121,121,122,120,122,121,119,126,119,122,123,123,124,125,122,118,120,121,120,120,120,120,122,129,121,114,120,120,121,116,119,116,121,130,123,120,123,125,123,140,120,114,122,122,121,119,116,115,120,124,119,120,122,122,124,130,119,125,123,122,122,121,123,118,119,117,122,121,122,122,121,124,121
118,120,119,122,124,116,113,121,117,121,121,123,120,125,126,120,125,124,123,124,126,127,133,120,112,118,120,120,119,119,117,120,122,120,120,121,122,129,150,119,128,126,121,122,122,121,127,120,118,117,119,117,111,119,131,119,123,121,119,119,119,117,127,120,117,120,122,127,128,123,124,121,126,123,121,122,121,118,121,121,119,121,122,122,120,123,121,120,121,123,122,122,120,121,121,120,118,121,122,128,123,122,133,120,126,122,122,124,127,122,123,120,120,121,121,121,119,115,112,121,123,123,122,123,122,123,123,120
120,121,120,120,119,121,113,120,121,123,124,125,124,122,119,121,120,121,121,122,122,122,114,120,115,120,120,122,121,116,105,120,130,124,123,124,125,124,130,120,119,120,119,117,113,120,115,121,121,123,121,123,122,120,119,120,116,119,120,120,119,117,101,121,123,120,121,122,122,119,108,121,119,122,120,122,121,122,122,121,120,120,122,123,125,123,122,121,114,120,119,117,110,114,116,121,129,124,123,124,127,133,128,120,118,120,120,121,120,120,118,120,123,122,121,120,116,120,119,121,120,123,122,121,115,125,124,119
119,119,121,121,119,120,122,120,123,122,121,124,123,120,117,120,118,120,120,120,118,111,93,120,124,122,121,122,122,121,121,120,127,123,122,123,125,125,128,120,116,121,120,119,115,118,118,120,124,122,120,121,120,121,128,121,119,121,121,123,125,125,119,120,120,120,119,118,117,117,120,121,115,121,121,121,121,120,129,120,124,121,120,122,121,123,141,120,121,124,122,123,123,121,119,119,119,115,119,121,118,122,132,120,118,117,118,118,117,127,128,120,116,125,121,120,116,113,114,121,122,120,121,122,122,128,134,119
120,122,122,122,120,120,115,121,122,120,120,121,122,121,115,120,123,124,122,122,122,130,148,120,116,119,119,117,117,117,117,120,125,123,122,124,122,123,124,120,120,122,122,120,120,119,117,120,119,121,119,119,122,118,118,120,123,121,120,121,120,121,122,121,120,120,120,122,122,128,128,120,124,120,122,125,124,121,117,120,118,123,120,118,116,117,114,121,125,123,122,125,131,123,122,120,114,119,119,119,112,116,120,121,119,121,121,121,122,124,130,120,120,121,120,121,117,119,117,120,124,120,119,118,117,118,132,120
122,122,122,122,118,119,125,120,119,121,121,122,123,120,120,121,122,124,124,128,124,120,104,121,114,119,119,120,118,111,115,120,122,121,120,119,120,119,118,120,119,121,121,121,119,119,114,120,116,123,122,122,121,121,121,121,121,117,119,120,121,122,125,120,124,124,123,123,123,123,117,120,120,121,121,121,122,122,126,119,119,120,120,121,119,121,125,121,121,123,122,123,123,124,128,120,117,119,120,114,107,121,118,121,120,121,119,121,124,117,120,121,126,125,122,122,122,122,121,121,119,119,121,122,121,120,123,121
119,121,120,121,121,119,120,121,128,125,122,123,126,124,128,120,121,123,122,120,121,133,131,120,119,121,121,121,120,120,123,120,122,121,120,122,123,121,118,120,119,121,121,121,123,123,136,119,125,123,122,124,128,123,126,120,119,122,122,125,122,120,115,120,118,120,121,122,120,120,112,120,120,121,121,122,121,120,120,120,120,122,121,123,118,120,121,120,118,118,119,122,123,118,113,120,122,121,120,120,120,121,119,120,118,122,121,122,122,124,121,120,118,119,121,123,124,121,117,120,119,122,121,119,114,117,108,120
124,124,120,117,116,117,112,121,115,119,120,120,118,117,104,121,122,120,120,121,120,120,123,119,121,122,121,122,122,121,124,120,121,123,121,122,121,121,108,120,118,121,121,123,124,121,121,121,126,124,122,121,120,121,126,120,114,120,119,120,120,123,127,120,119,120,120,121,120,120,127,120,121,122,122,122,121,118,105,120,122,122,122,126,127,127,116,121,120,121,120,118,117,117,115,120,119,120,120,121,122,122,121,121,120,122,122,122,121,122,120,120,129,127,125,125,119,127,125,120,117,115,119,123,125,122,125,120
120,121,120,120,120,120,123,120,120,123,122,122,122,121,120,120,119,122,121,120,113,121,115,120,124,118,117,117,125,120,138,119,117,116,119,119,116,115,104,121,114,123,121,121,118,122,115,121,125,119,118,121,122,119,127,120,120,123,122,122,120,123,121,121,123,123,122,123,123,120,125,120,120,121,120,122,121,119,124,119,120,123,123,123,117,121,113,120,117,119,120,120,120,117,114,120,119,121,120,121,120,117,114,120,119,120,121,121,119,119,113,121,128,125,122,122,116,125,126,120,121,123,121,122,123,120,125,120
118,121,121,122,123,122,124,121,121,120,121,123,121,122,124,120,120,120,119,122,122,119,106,120,123,123,121,131,134,121,117,120,125,122,122,122,121,125,132,120,115,120,120,121,120,119,112,120,120,120,119,121,121,121,120,120,118,121,121,122,120,119,108,120,118,120,120,121,118,117,122,120,123,122,120,122,122,117,105,121,120,123,121,123,123,127,126,120,118,120,121,123,118,117,114,120,119,120,120,122,122,120,121,121,121,125,122,122,123,120,120,121,123,121,121,121,119,119,110,121,124,122,121,122,122,125,133,120
122,123,121,122,122,120,122,121,120,123,121,122,121,122,123,121,119,118,121,122,121,122,130,120,120,123,121,122,123,127,134,119,119,119,121,122,120,116,105,121,122,123,122,119,116,119,113,120,122,121,120,121,121,124,118,121,122,125,123,122,122,117,114,120,116,118,120,122,124,119,121,120,126,123,122,124,126,129,135,119,120,121,120,119,119,119,128,120,117,118,120,124,123,121,114,120,122,122,120,118,111,120,129,120,119,123,121,125,127,119,114,120,119,117,119,119,116,119,142,119,121,123,121,122,120,120,130,121
121,122,121,122,121,122,122,120,121,123,122,122,121,120,119,120,121,120,119,120,119,122,122,120,121,121,121,123,121,118,121,120,118,121,123,131,126,120,117,121,122,122,121,122,123,120,117,120,122,121,121,121,121,121,124,120,116,119,120,122,123,117,116,120,120,123,122,121,118,119,118,120,122,122,121,125,126,126,135,119,117,115,116,116,117,117,127,119,124,124,122,120,118,122,130,120,118,120,121,120,115,120,112,120,124,123,122,122,124,140,159,118,119,120,120,122,123,118,132,119,121,122,121,122,123,124,123,120
118,123,121,122,121,120,120,120,120,119,121,123,122,121,124,120,117,122,121,121,121,121,120,121,128,126,122,124,125,126,133,120,121,122,122,122,122,121,122,120,124,121,120,121,120,122,126,121,118,122,121,123,123,125,103,121,115,117,119,122,120,120,121,120,121,121,121,120,119,120,120,120,120,121,120,121,114,116,119,120,119,122,121,126,138,118,113,120,124,122,122,123,121,122,122,121,117,120,120,122,120,122,113,120,120,122,122,123,120,120,120,120,122,122,121,124,123,123,112,121,121,122,121,124,128,122,116,120
116,121,121,123,122,126,130,120,123,120,119,121,120,119,101,121,124,123,120,121,120,120,128,120,114,119,120,122,122,121,123,119,123,121,122,120,117,123,126,120,120,122,120,122,121,121,122,120,121,122,121,123,123,118,121,120,120,123,122,127,123,120,124,121,127,124,123,122,121,126,135,120,120,122,121,123,122,117,127,120,119,121,121,121,120,121,121,120,117,118,119,121,121,124,131,120,123,122,121,123,122,120,121,120,122,124,122,120,120,121,124,121,119,121,121,120,111,122,126,120,123,122,120,122,125,120,119,120
125,121,120,122,120,121,130,120,115,119,120,122,121,117,106,120,121,121,121,122,120,120,126,119,119,122,120,116,114,119,116,120,122,122,122,122,121,119,112,121,120,117,119,122,129,125,125,119,119,122,120,121,121,119,116,120,127,124,123,122,121,120,125,120,119,121,121,121,120,120,122,120,125,122,121,122,121,123,129,120,122,123,121,122,122,126,131,120,124,122,121,121,119,122,127,120,118,123,122,123,122,121,119,120,119,121,121,122,122,120,119,121,117,120,120,121,120,119,127,120,123,122,122,121,120,122,127,120
120,122,122,122,121,121,116,119,121,120,121,123,118,122,125,120,123,125,122,125,120,124,122,121,119,118,120,121,123,121,123,120,124,123,122,123,122,121,122,120,119,121,121,122,121,121,121,120,120,120,121,123,123,121,118,120,117,121,120,119,120,119,121,120,123,122,120,119,117,118,117,120,116,117,120,119,117,122,125,120,121,122,120,121,124,123,127,120,124,123,122,120,117,123,122,120,118,120,121,122,122,121,116,120,119,120,122,123,123,123,114,120,123,120,119,120,121,118,128,120,121,123,122,123,122,125,117,121
119,119,119,120,120,120,122,121,118,121,120,121,120,121,122,120,123,124,123,123,122,122,117,120,122,120,119,119,118,119,123,120,120,123,120,122,122,122,122,121,119,120,121,121,119,119,118,120,121,122,120,118,117,120,122,120,129,124,121,123,125,121,128,121,119,121,120,120,118,120,117,120,119,117,119,121,122,122,122,121,119,123,121,122,122,124,126,120,120,121,121,120,112,118,115,120,124,124,121,122,122,121,121,121,126,125,123,122,121,122,126,120,118,117,118,121,121,117,112,121,118,121,120,119,118,117,124,120
122,120,119,121,122,120,149,120,114,120,120,121,119,118,113,120,120,120,120,121,121,122,125,119,122,121,121,122,122,125,129,121,117,120,121,120,121,122,116,121,123,122,122,122,122,121,125,120,121,121,120,120,120,123,125,121,124,122,121,121,120,124,141,120,119,121,121,122,122,121,121,120,124,121,121,122,121,121,121,121,117,122,121,131,130,122,125,120,119,122,120,117,118,120,118,120,124,121,121,122,122,123,126,120,122,123,122,121,120,123,128,120,122,121,121,122,123,126,112,121,121,123,121,123,123,122,124,120
124,122,121,122,122,124,124,119,113,119,119,120,120,122,126,121,123,120,122,122,119,119,121,119,117,121,119,121,122,121,129,120,121,120,121,121,121,123,113,120,123,122,120,121,120,118,117,120,120,122,121,122,122,123,122,120,120,121,120,122,122,128,135,121,119,120,119,121,121,123,123,120,121,121,120,122,119,117,122,121,123,121,121,123,124,123,128,120,118,121,121,122,121,121,116,119,121,121,121,123,122,121,120,120,123,121,120,119,118,122,124,120,119,121,122,123,121,120,122,121,119,119,119,121,118,119,114,120
120,123,122,122,123,122,124,120,120,121,121,121,118,123,125,119,122,122,120,120,119,122,120,120,121,119,120,123,126,120,116,120,124,124,122,123,122,122,128,120,123,121,121,124,124,120,116,120,118,120,119,115,112,120,124,120,120,121,120,122,124,125,126,120,116,117,119,121,122,122,126,120,127,123,121,121,120,122,121,121,121,124,122,123,123,120,116,120,121,122,122,122,122,127,128,121,119,120,120,121,120,123,121,119,123,125,122,123,121,123,118,120,120,118,121,122,122,121,113,120,122,123,121,119,121,122,118,120
119,119,119,121,119,118,112,120,118,122,123,125,125,122,123,120,124,120,120,122,122,119,117,120,121,124,122,125,126,124,132,120,118,121,121,122,120,120,118,120,123,124,123,123,122,120,115,121,125,122,122,122,122,124,126,121,114,121,121,122,120,120,122,120,122,121,120,120,121,121,125,120,122,121,120,120,120,120,116,121,118,121,121,122,121,124,129,119,119,121,121,122,123,121,121,120,122,122,122,123,122,123,123,121,121,123,121,122,121,120,115,121,121,121,120,119,117,120,121,120,118,120,121,122,124,122,121,120
125,123,122,122,112,122,126,120,119,122,122,124,128,120,121,120,122,122,122,123,122,118,114,120,121,122,121,122,122,122,127,121,122,121,122,123,123,123,138,119,122,124,122,126,130,123,117,120,125,120,121,122,120,116,119,120,113,121,119,119,118,120,113,121,131,123,120,119,120,127,145,120,113,119,120,121,121,120,126,120,117,120,119,121,120,119,112,121,119,121,121,121,121,125,137,120,132,123,123,124,122,119,126,120,117,122,121,121,119,118,113,120,119,121,121,123,122,121,113,120,124,121,121,122,121,122,123,120
119,123,122,123,121,124,123,121,122,121,123,120,118,121,120,120,125,121,117,116,123,124,123,121,116,119,121,126,119,116,115,120,132,125,126,128,120,119,119,120,108,120,115,105,121,121,114,120,117,121,119,111,118,119,116,120,122,116,117,112,109,115,116,121,122,121,122,127,118,114,105,120,116,120,119,114,116,116,124,121,118,121,122,127,123,122,120,120,122,121,121,123,119,121,128,121,118,119,120,122,120,118,112,120,119,120,121,128,125,122,115,121,122,121,121,122,122,121,116,121,125,124,122,121,121,122,104,121
110,117,119,120,121,129,139,120,124,122,120,122,121,119,114,121,129,121,121,122,123,123,127,120,119,123,121,122,121,119,118,119,110,114,119,121,121,121,132,119,126,119,119,122,124,119,123,120,115,119,119,118,115,115,114,120,123,123,121,120,121,119,111,120,122,123,121,119,119,126,137,120,122,123,128,134,120,117,112,120,121,122,120,121,118,118,115,121,123,119,122,122,118,123,120,121,119,124,124,123,120,121,124,120,119,120,117,120,124,120,122,119,120,120,120,122,120,119,119,120,121,122,121,121,120,123,134,120
120,116,118,120,119,119,139,120,128,125,122,121,119,118,114,121,114,122,122,122,122,119,116,119,130,121,120,121,121,124,136,120,119,122,123,123,123,125,111,121,117,120,120,122,122,126,136,119,119,120,119,120,119,119,115,120,121,122,121,123,122,119,116,121,118,120,121,121,121,121,116,120,125,122,122,123,123,123,122,119,116,121,122,123,123,117,115,120,121,120,119,118,113,115,110,121,126,122,122,123,122,127,126,120,123,122,121,121,122,121,123,121,125,124,123,124,121,123,124,130,121,121,121,120,118,118,134,122
120,121,120,122,123,122,116,121,127,122,121,122,124,130,146,120,116,122,123,124,122,119,103,120,120,121,119,120,119,117,114,121,122,125,122,123,123,121,117,120,118,119,120,124,123,126,128,120,127,120,120,123,124,123,127,120,115,123,120,118,117,118,103,120,125,121,120,122,124,121,116,121,120,120,118,112,107,116,112,121,122,123,121,123,123,123,120,120,120,118,119,118,116,119,127,120,120,124,122,121,119,119,116,120,120,122,120,119,117,122,122,121,124,122,120,119,119,121,123,120,116,121,122,123,122,118,109,121
128,121,119,117,118,127,142,120,119,121,122,123,122,121,115,120,120,121,122,123,122,121,120,120,117,116,118,121,123,120,112,120,121,124,121,121,120,119,127,120,124,122,121,122,121,124,132,120,119,121,121,122,122,122,126,119,120,120,118,118,120,120,120,120,122,122,121,119,116,122,133,121,119,121,121,121,121,117,123,121,118,120,120,121,121,121,117,120,116,120,120,121,120,120,118,120,123,123,122,124,122,121,118,121,121,120,120,121,120,124,123,120,121,123,123,123,122,123,124,121,118,121,121,122,122,121,121,119
120,119,120,121,121,121,130,120,121,120,118,116,122,121,124,121,123,122,115,109,119,118,122,120,117,121,124,128,124,117,118,120,121,121,122,123,122,122,119,121,124,123,122,120,122,122,125,120,117,119,115,118,120,116,108,120,109,117,118,120,118,114,114,120,124,121,121,124,124,129,131,120,114,121,121,122,121,123,125,121,124,124,122,123,122,119,100,121,114,120,121,123,121,116,112,120,118,121,120,119,117,114,113,121,119,123,122,123,124,130,150,120,113,116,120,121,120,118,121,121,123,123,122,122,122,125,124,120
125,121,120,121,121,119,116,121,118,121,122,123,121,120,123,120,122,122,121,122,123,123,127,120,120,117,120,122,120,118,117,121,121,125,121,120,119,118,117,120,122,122,121,121,123,123,124,120,120,121,121,126,120,117,120,120,114,120,124,132,125,119,114,121,126,123,122,124,124,123,131,120,117,121,120,119,115,116,115,121,125,119,119,121,120,119,120,121,118,121,122,123,122,122,116,120,119,126,122,122,122,124,128,120,118,111,120,123,122,124,126,120,118,124,121,121,120,117,112,120,131,125,121,122,121,119,123,121
102,121,122,122,120,115,109,121,124,121,120,121,120,117,98,121,125,120,119,120,120,119,125,120,121,122,121,122,121,118,125,119,126,123,121,122,122,120,123,120,117,121,120,120,119,119,115,120,119,121,121,121,120,119,118,120,121,122,120,122,123,121,119,120,121,121,120,122,124,124,121,121,118,121,121,119,123,120,125,121,116,119,119,115,111,113,103,120,122,122,119,118,118,121,128,120,119,121,121,122,122,124,117,121,122,120,121,122,121,124,127,120,121,122,121,121,121,121,124,120,123,122,121,122,123,120,122,121
124,123,122,123,122,122,129,120,113,119,120,122,120,116,109,121,126,120,120,122,122,123,128,121,122,122,120,120,119,119,117,121,123,120,120,121,121,123,134,120,115,121,121,122,120,117,114,120,123,121,120,121,121,121,122,121,120,121,120,121,121,120,119,120,126,122,120,120,120,123,127,120,119,122,121,122,122,120,118,121,124,120,120,121,121,123,130,120,120,123,120,120,120,121,121,121,123,119,118,121,124,121,125,120,118,122,120,119,119,121,125,120,120,121,121,122,121,124,128,120,121,122,121,123,120,121,119,120
127,125,123,123,122,122,125,120,121,122,121,122,122,122,121,121,118,118,120,122,121,120,113,120,120,123,121,122,121,119,109,120,124,119,120,121,120,122,137,119,117,122,121,121,119,119,113,121,121,125,125,125,125,122,118,120,122,122,120,122,122,123,127,119,127,124,122,123,122,122,122,120,115,117,122,123,120,120,115,120,120,125,121,119,114,119,118,120,120,122,121,123,126,123,110,121,121,121,121,121,121,120,122,112,120,121,121,122,121,121,119,107,117,117,119,121,122,119,117,91,120,123,121,123,122,121,120,110
125,123,120,121,124,123,133,165,119,121,120,120,120,121,113,129,120,121,119,118,117,119,119,122,122,123,122,123,123,123,132,120,124,123,122,121,122,124,124,120,125,123,121,120,119,119,119,120,115,119,120,121,120,120,128,120,122,122,121,122,122,123,134,119,116,122,122,122,120,116,109,123,124,121,121,123,127,125,135,120,113,120,121,122,121,122,120,120,123,121,119,119,119,118,121,120,119,122,122,121,120,122,122,120,119,119,120,122,122,124,117,119,121,122,120,121,120,120,118,121,119,117,120,122,122,122,119,120
117,124,121,123,122,121,120,120,123,118,121,122,121,121,122,120,121,123,120,123,127,121,121,121,117,121,120,118,118,118,117,121,130,121,119,120,119,118,125,119,118,122,122,123,124,125,122,120,123,123,121,122,121,119,120,120,121,121,121,122,121,119,110,121,112,118,120,121,120,125,142,119,126,123,121,122,122,123,122,120,121,124,123,122,120,120,91,121,122,122,121,123,122,121,122,121,121,123,121,122,122,121,121,120,120,119,120,121,120,121,126,120,121,122,120,120,118,120,117,121,120,119,121,122,125,125,112,120
121,123,122,124,123,119,135,120,121,122,120,118,114,122,122,120,120,120,120,129,127,124,124,120,125,123,121,121,122,124,129,120,119,119,121,122,121,120,120,120,118,122,120,121,120,120,119,120,119,121,121,122,123,124,136,120,108,119,121,123,123,121,131,119,128,122,120,120,116,123,123,121,117,122,121,123,122,120,119,120,119,119,120,122,121,120,122,120,119,120,120,122,121,122,124,120,123,123,121,120,119,116,110,120,118,120,121,122,121,123,125,120,124,117,118,121,121,122,119,120,115,125,121,118,119,119,126,119
123,119,120,119,118,121,129,120,123,123,121,122,123,119,116,120,120,122,121,121,119,120,122,121,115,119,120,122,118,121,127,120,117,121,120,122,123,119,124,121,131,122,121,121,120,124,130,120,120,121,120,122,125,121,127,121,129,122,121,124,124,118,112,120,116,121,121,121,120,121,121,120,122,123,121,121,121,122,123,120,127,122,121,121,120,117,106,120,109,117,120,122,122,122,119,119,129,124,122,124,123,122,123,121,123,123,122,124,127,126,129,120,121,120,120,122,128,117,126,120,122,124,122,122,120,124,127,120
117,120,121,123,121,125,126,120,122,122,121,121,119,119,120,120,124,121,121,123,122,122,120,119,117,120,120,122,122,121,125,120,119,121,120,119,116,117,117,120,123,122,122,124,124,120,120,120,126,121,120,119,117,120,125,120,119,122,121,121,121,122,117,120,116,121,121,123,122,121,116,121,120,118,119,119,116,117,120,121,123,123,121,123,124,123,123,120,121,120,121,124,124,124,117,120,124,122,121,123,125,123,128,120,114,119,120,119,119,122,122,120,117,120,120,120,118,123,128,120,124,123,123,127,132,125,129,120
119,121,120,120,120,119,109,120,123,123,122,123,122,124,126,120,114,119,121,122,121,122,119,120,121,121,121,122,118,117,113,121,119,121,120,120,119,119,121,120,122,122,122,123,125,124,124,120,118,123,121,119,118,120,123,120,122,116,118,120,120,120,126,120,113,121,121,123,123,122,119,120,121,123,122,122,121,118,121,120,129,123,121,119,119,122,122,120,116,122,120,120,118,118,114,120,121,119,120,122,121,122,132,120,118,121,122,122,117,122,126,120,125,124,121,120,122,120,128,121,127,121,121,122,121,122,121,120
115,122,120,121,121,123,122,120,116,116,119,121,121,119,117,120,125,122,121,122,121,123,129,120,122,121,121,122,120,119,118,120,122,123,121,125,128,122,124,121,121,122,121,122,119,119,119,120,119,121,122,123,119,124,126,119,120,120,120,121,128,121,126,120,119,121,121,121,118,117,117,120,122,123,121,122,120,122,122,121,119,121,122,120,120,120,104,121,121,119,119,119,117,119,131,120,122,122,122,122,120,125,127,120,117,122,120,122,124,120,114,120,119,117,119,120,119,124,137,119,118,123,121,121,120,117,117,119
122,122,122,123,121,121,125,120,118,118,119,120,121,120,120,121,126,125,122,122,121,123,132,120,120,121,120,122,121,119,119,120,123,123,123,122,118,122,123,121,122,123,122,123,118,122,118,121,118,120,120,124,127,119,120,120,123,121,120,122,120,122,121,120,119,120,120,121,120,121,116,120,125,123,123,127,125,121,125,120,115,118,118,117,115,122,127,119,116,120,119,120,121,117,113,121,117,121,121,121,118,124,126,120,124,120,120,119,122,124,131,120,120,125,123,123,122,123,124,120,110,118,119,119,118,117,114,120
126,121,120,122,121,123,132,120,119,124,121,121,118,120,119,120,124,119,121,123,123,120,115,121,123,122,121,122,122,125,132,119,126,123,121,122,121,120,118,120,120,123,122,124,124,122,125,119,127,123,123,125,124,122,127,120,125,121,120,122,123,122,128,121,118,121,122,123,122,122,117,120,118,118,120,122,122,122,114,120,122,121,120,125,140,120,125,120,122,122,121,120,117,122,111,120,121,121,120,122,122,121,116,121,117,122,121,121,119,114,105,121,122,124,122,122,120,120,118,120,117,114,120,122,120,121,113,121
130,125,121,122,121,118,114,120,103,119,121,122,120,119,116,120,126,121,121,122,120,120,119,121,125,123,122,125,125,121,123,119,126,123,120,123,124,121,123,120,119,122,122,120,117,118,120,120,116,121,121,121,119,120,119,119,126,123,119,117,119,124,128,119,124,123,121,119,113,120,125,120,119,120,120,119,127,123,121,121,121,121,121,122,118,120,114,120,118,122,121,122,122,124,129,121,122,122,121,124,121,122,121,119,124,122,121,121,121,120,122,120,115,121,121,122,122,121,114,120,124,122,120,122,123,125,135,120
126,124,121,120,118,122,116,120,132,125,123,126,127,123,126,121,95,113,118,121,121,122,120,120,130,126,123,123,122,122,112,120,124,122,121,122,122,121,121,120,121,122,121,121,121,121,122,121,122,122,122,122,121,123,125,119,121,122,122,124,125,123,125,120,124,122,121,121,113,122,123,120,117,119,118,122,131,121,121,121,128,125,124,125,127,126,127,120,121,123,122,123,122,121,122,120,116,114,118,118,115,116,110,120,120,124,123,125,125,123,113,120,120,122,121,122,122,121,126,121,123,124,122,122,122,124,122,120
121,119,120,121,122,119,116,120,113,120,120,121,119,122,115,121,124,122,122,123,125,121,122,120,122,121,121,122,121,121,124,120,123,122,121,122,121,120,124,120,121,125,124,123,122,122,121,120,119,120,120,122,122,122,117,120,125,120,120,121,122,121,122,120,128,124,123,122,119,124,125,120,120,122,121,122,121,119,106,120,119,121,121,118,114,119,122,121,118,120,120,124,131,117,120,120,121,121,120,122,121,118,119,120,120,120,120,122,120,119,114,120,123,122,121,121,119,123,131,121,124,123,121,122,125,121,122,119
121,121,122,123,121,120,119,120,118,121,121,123,120,119,116,120,121,121,120,121,121,122,116,121,123,122,121,122,121,122,124,120,123,123,120,121,120,119,126,120,116,119,121,121,120,121,126,120,123,123,122,123,122,119,112,120,121,123,121,121,120,119,119,120,121,122,120,121,120,122,122,120,115,120,120,123,125,119,116,120,126,119,122,120,116,120,128,121,116,124,122,128,126,123,125,119,121,123,121,122,119,120,119,120,121,119,120,123,125,124,125,121,123,123,122,123,121,118,119,120,120,122,121,122,117,123,127,120
120,121,120,123,121,122,125,120,124,121,120,123,124,123,121,121,117,122,122,122,120,121,121,120,117,120,120,121,121,120,121,120,120,119,120,122,122,122,127,120,123,121,121,122,122,120,116,120,120,121,121,121,120,117,117,120,117,120,120,123,124,121,119,120,116,120,120,118,118,118,122,120,123,121,120,122,121,123,115,121,112,118,121,123,124,121,128,119,121,123,121,120,119,119,124,120,123,123,122,123,128,121,127,120,120,121,120,119,116,118,120,121,124,124,121,122,123,124,127,120,121,117,120,121,119,118,117,120
119,120,120,121,122,123,123,120,120,124,122,122,120,120,122,120,122,120,121,122,124,121,127,120,119,122,121,120,113,119,117,120,117,121,120,124,126,121,122,120,118,120,120,119,117,119,117,121,119,121,121,124,126,122,124,120,119,119,118,119,116,120,129,120,125,122,122,123,127,125,126,120,122,122,121,121,119,118,114,121,111,121,121,122,121,122,138,120,130,120,120,120,120,121,122,121,121,124,121,121,121,120,124,120,121,122,119,119,118,115,118,121,124,122,121,122,122,122,128,121,121,122,120,117,117,122,121,121
120,123,121,121,118,119,121,120,123,120,122,123,124,122,110,121,120,124,122,124,124,122,130,120,119,121,122,122,118,117,116,120,130,122,120,123,129,128,134,120,121,123,123,124,121,122,124,121,119,121,121,122,122,122,128,120,115,118,119,120,120,122,126,120,121,122,122,122,122,123,112,121,120,122,121,121,118,119,112,121,121,120,120,121,120,120,124,120,117,120,120,121,120,120,124,120,125,123,121,122,122,121,118,120,113,118,120,121,121,121,116,120,122,123,121,122,120,120,127,120,124,121,120,121,120,118,121,121
120,122,121,121,119,121,126,120,123,121,120,119,121,124,126,120,122,122,121,123,124,120,126,120,122,121,118,117,114,117,120,121,114,120,122,122,119,119,107,120,120,122,121,121,119,120,119,120,122,122,121,122,121,120,118,121,116,120,121,123,123,122,121,120,120,119,120,122,119,120,123,121,122,119,120,121,125,125,121,120,124,125,121,119,116,118,117,120,122,122,121,123,122,121,121,121,119,122,122,122,121,121,120,121,120,122,121,122,121,120,125,120,118,119,119,121,121,122,123,121,122,123,121,123,121,122,127,119
123,124,123,124,121,122,119,121,116,120,120,122,121,119,125,120,123,121,121,122,122,120,115,120,119,122,121,121,120,121,122,120,122,122,122,122,121,120,121,121,118,121,120,122,121,122,121,121,117,118,119,120,118,117,118,120,121,123,122,123,122,121,119,119,119,121,120,121,119,120,125,120,120,121,122,123,125,121,120,120,120,122,120,121,118,116,116,120,119,120,120,122,122,121,123,120,120,123,120,121,121,122,125,121,119,114,119,121,122,120,116,121,122,123,120,118,110,117,112,121,135,126,120,118,123,119,134,120
