118,120,121,123,121,121,121,119,117,122,120,122,122,121,121,120,122,120,120,119,120,121,121,120,122,122,119,120,121,121,121,120,122,121,119,123,122,121,121,121,118,121,121,123,122,121,121,120,123,120,121,123,121,121,122,120,120,122,121,119,120,121,121,120,119,120,121,122,120,121,121,121,118,121,120,123,121,121,121,120,119,122,122,122,122,121,122,121,122,122,122,122,122,121,122,120,120,122,120,120,119,120,121,121,117,121,120,121,120,121,122,121,121,122,122,125,124,122,121,120,122,120,120,120,121,121,122,122
117,121,120,121,120,121,121,119,118,121,121,123,122,121,121,120,121,122,122,123,121,120,121,120,120,121,121,123,123,121,121,120,122,122,121,121,120,120,121,121,119,121,120,121,119,120,121,119,118,120,120,122,122,121,121,121,122,122,121,122,122,122,122,122,120,121,121,122,121,121,122,120,119,120,121,121,122,121,121,120,121,121,120,121,121,121,121,121,120,122,121,123,121,121,121,121,119,121,120,121,122,121,122,120,118,121,121,121,121,122,121,119,121,121,122,123,123,122,122,120,122,121,121,120,119,120,121,121
117,122,121,121,121,121,121,121,121,121,122,123,121,121,121,120,121,122,122,122,121,121,122,120,123,122,121,119,120,121,121,120,120,120,121,123,122,121,121,121,117,122,121,120,119,120,121,121,118,120,120,122,121,121,121,120,119,122,122,121,120,120,121,120,119,122,122,124,121,121,122,122,125,121,120,117,120,121,122,121,119,121,121,124,121,120,121,120,123,121,122,123,122,121,121,120,121,122,122,123,122,121,121,121,120,120,121,120,120,121,121,119,119,121,120,120,120,120,120,120,122,121,121,124,123,121,121,120
119,122,121,122,122,121,121,121,122,121,121,121,121,120,121,120,123,122,120,122,121,121,122,121,120,122,120,122,120,121,121,120,118,121,120,122,121,121,121,119,116,122,122,121,122,122,121,121,121,120,121,123,121,122,121,119,118,122,121,121,121,120,120,120,124,121,122,124,122,121,121,120,116,121,121,120,121,121,122,121,120,122,121,122,121,121,120,120,119,121,121,122,121,121,120,120,119,121,121,124,123,121,120,120,121,121,119,118,119,121,121,121,120,120,120,122,121,121,121,120,122,120,120,122,121,121,121,120
117,122,121,122,122,121,121,120,123,121,121,123,121,120,121,120,123,121,121,122,121,121,121,121,122,122,121,123,122,121,121,119,122,122,121,122,122,121,122,120,119,121,120,118,120,121,121,120,118,121,121,125,123,122,122,121,123,123,121,122,121,121,121,121,120,122,121,120,120,120,121,120,118,122,121,124,122,121,121,119,116,122,122,124,123,122,121,120,122,121,121,120,120,121,121,120,119,121,122,123,121,120,121,121,122,121,120,121,121,121,122,120,121,122,121,122,121,120,121,120,119,121,121,123,120,121,121,120
123,121,120,121,122,121,120,120,120,121,120,121,121,121,122,121,121,122,120,121,121,122,122,120,126,121,120,121,120,121,122,121,122,120,121,122,121,122,122,121,122,121,121,122,121,121,121,119,119,122,122,123,120,120,120,120,124,122,121,120,122,121,122,121,122,121,120,124,122,121,121,121,123,121,120,121,121,121,122,120,118,121,121,122,121,121,121,120,118,122,121,122,121,121,122,122,120,121,120,121,121,121,121,120,121,122,122,122,120,121,121,120,120,121,120,122,121,121,122,121,123,121,120,121,121,121,122,121
121,121,120,122,122,121,122,121,120,121,121,123,122,121,121,121,119,122,121,117,119,120,120,119,122,121,120,123,121,121,121,120,124,122,122,123,122,121,121,121,119,120,121,121,121,121,122,120,118,120,120,121,121,121,122,121,124,121,120,122,121,121,121,120,121,121,121,122,122,122,122,121,118,122,122,121,121,120,121,120,122,122,121,122,120,121,121,120,122,122,120,122,122,121,122,121,119,120,120,122,122,122,122,121,124,119,120,121,121,121,122,119,123,122,120,123,119,121,121,121,121,122,121,116,119,120,121,121
120,122,121,125,123,121,121,120,126,120,122,123,122,121,121,121,123,120,120,120,120,121,121,120,123,122,121,122,120,121,121,121,119,121,121,122,122,121,120,120,115,122,121,122,121,122,122,120,120,121,120,121,121,121,122,120,123,121,121,121,119,120,121,121,118,122,120,122,121,120,121,120,119,121,121,123,122,121,120,120,120,122,121,121,122,121,121,119,120,121,121,123,122,121,121,120,119,121,120,123,119,121,121,120,118,121,120,118,120,121,121,120,125,122,121,123,122,121,121,121,120,122,121,123,123,122,121,119
119,121,122,121,120,121,121,121,120,121,120,121,121,121,121,120,116,122,120,122,122,122,122,120,124,122,121,122,122,121,122,122,121,122,121,121,120,120,121,121,120,122,121,122,120,120,121,120,113,123,121,124,123,122,122,121,124,120,121,122,120,121,121,120,119,121,121,120,121,121,121,121,116,121,121,124,122,122,121,120,120,121,121,119,119,121,121,119,120,121,121,125,123,121,121,120,120,122,121,120,121,121,121,121,117,121,121,122,121,121,121,119,119,121,122,123,122,122,121,120,124,121,122,122,120,120,121,120
120,122,121,120,121,121,121,121,120,121,122,122,120,121,121,120,119,121,121,122,122,122,121,120,122,122,121,122,122,122,122,121,122,122,121,123,121,120,121,121,121,121,120,120,119,121,120,119,114,121,121,122,122,121,121,120,119,122,123,126,124,122,121,121,120,122,121,120,120,121,121,120,120,121,120,123,121,121,121,120,118,120,121,121,121,121,122,121,121,121,121,123,122,121,122,120,123,122,121,121,120,120,121,121,120,122,120,121,121,121,121,120,118,121,121,122,121,121,121,120,122,121,122,122,122,121,121,120
124,122,121,122,121,121,121,120,118,121,121,125,123,122,121,119,119,120,120,118,119,120,122,121,121,121,121,122,120,121,122,120,123,121,121,122,121,120,121,121,123,121,120,124,123,122,122,120,118,121,121,118,118,120,121,120,118,121,120,123,123,121,121,120,119,122,121,122,122,121,122,120,122,121,120,122,121,121,121,121,119,120,120,121,121,121,122,121,121,121,121,121,121,122,122,120,121,121,121,123,122,121,122,120,121,120,121,119,122,122,121,120,119,120,121,122,121,121,121,120,124,121,120,123,122,121,122,121
119,122,120,119,119,121,121,120,120,121,121,124,124,122,121,121,124,123,121,118,119,120,121,121,121,121,120,123,121,121,122,121,118,121,121,120,121,121,122,120,116,121,122,123,122,121,121,121,120,121,121,123,122,121,121,120,121,121,121,120,120,121,121,119,117,121,121,123,122,121,121,121,120,123,120,121,120,121,121,121,121,120,121,123,121,122,121,120,122,121,121,120,122,121,122,120,122,121,120,122,122,121,122,121,117,120,121,122,121,121,122,121,124,122,121,121,121,121,121,121,118,121,121,120,120,121,122,120
123,123,121,123,122,121,121,120,119,121,121,122,120,121,121,120,122,121,121,121,121,121,121,121,120,122,121,122,121,122,121,119,122,121,120,121,122,121,121,121,119,120,120,121,121,122,122,120,116,121,122,123,121,122,122,120,117,122,121,122,121,121,121,120,121,121,121,121,121,121,122,121,121,122,122,122,121,120,121,121,123,120,122,123,122,121,120,120,123,121,121,121,120,120,121,120,123,122,121,122,120,121,121,120,118,121,121,120,120,121,122,120,116,121,121,122,122,121,121,120,124,121,121,122,121,120,120,120
121,122,121,122,122,122,122,121,121,121,121,124,121,120,121,120,118,121,121,119,120,121,121,120,124,122,122,123,123,122,122,120,122,122,121,121,121,121,121,120,118,121,121,123,122,121,121,119,120,122,121,121,121,121,121,120,117,121,121,122,121,121,122,121,118,122,121,122,120,121,121,120,121,121,122,122,122,121,122,120,120,122,119,117,118,120,121,121,122,121,121,123,120,120,121,120,118,121,121,124,123,121,122,120,119,121,121,119,120,121,121,120,119,121,121,124,122,121,121,119,122,121,121,122,121,122,122,121
123,121,121,123,121,121,121,120,121,121,122,122,121,121,121,121,121,121,122,122,121,120,121,121,121,120,121,122,120,120,121,120,118,121,121,123,123,121,122,120,121,121,121,122,122,121,122,120,115,121,121,121,121,121,121,119,122,121,121,122,121,121,121,120,120,123,122,123,123,121,121,121,120,120,121,121,120,121,121,121,119,121,120,119,119,121,121,119,119,122,122,123,122,121,121,121,117,122,122,122,122,122,122,121,125,121,121,122,120,122,122,120,120,121,119,121,122,121,121,120,118,122,121,123,122,122,121,120
120,122,122,122,121,120,121,121,119,120,120,121,120,121,121,121,117,121,120,121,122,121,122,119,123,121,122,122,121,120,121,119,119,123,121,123,122,122,122,121,123,120,121,120,121,121,120,121,125,122,120,119,120,120,121,121,120,121,121,123,122,121,122,121,118,121,121,122,121,121,121,120,119,121,120,121,120,121,122,121,126,121,121,121,122,121,120,120,124,120,121,122,122,121,121,121,119,121,121,121,121,121,121,119,116,121,121,121,122,121,121,120,121,122,121,122,121,121,122,120,122,122,121,121,121,121,121,121
121,120,121,122,121,121,121,120,121,120,121,122,122,121,121,120,116,122,121,122,121,121,121,120,123,120,121,122,121,121,121,119,121,121,120,119,121,121,122,120,118,122,122,122,121,120,121,120,120,121,122,125,122,121,121,120,124,120,121,116,119,121,121,121,120,121,120,125,122,121,121,120,122,122,121,122,120,120,121,121,117,123,122,121,120,120,121,120,127,122,121,121,121,121,121,121,123,121,121,121,121,121,121,121,120,120,121,122,121,121,121,120,118,121,122,121,121,121,121,120,117,122,121,123,122,121,122,121
118,121,119,119,120,121,122,120,120,121,121,123,122,121,121,119,122,122,121,123,122,121,121,120,126,122,121,121,121,121,121,121,117,122,120,117,118,120,121,120,120,122,120,124,122,121,121,120,117,121,121,123,122,121,120,119,123,122,121,122,121,120,121,121,124,122,121,119,119,120,121,120,119,121,120,122,121,121,121,120,117,122,121,123,122,121,121,120,123,121,122,122,121,121,121,120,122,121,121,122,121,120,121,121,116,122,121,122,122,121,121,119,121,121,121,122,121,120,121,120,121,121,121,124,123,121,120,120
121,122,121,121,121,122,121,120,117,119,119,123,121,121,121,120,120,121,121,119,120,121,121,120,122,122,121,124,121,121,121,120,123,121,121,123,122,121,121,121,123,122,121,120,119,121,122,121,117,121,120,121,122,121,122,121,118,122,122,124,122,121,121,120,122,121,122,120,121,122,122,120,121,121,122,124,121,121,121,120,123,122,121,121,121,121,121,120,120,121,121,121,119,121,122,121,117,122,122,121,120,121,121,121,118,122,122,125,123,121,122,120,121,121,120,117,118,120,121,120,121,121,121,123,122,120,120,119
121,122,121,122,122,122,121,120,122,122,121,123,122,121,122,120,121,122,120,115,119,120,121,121,121,122,121,123,122,121,122,120,122,121,121,123,122,121,122,120,120,121,121,122,122,121,122,120,123,121,120,121,121,121,121,120,120,120,121,123,122,121,122,120,122,120,121,121,121,121,121,119,121,121,121,123,122,121,121,120,117,122,122,121,121,121,122,121,123,121,120,121,121,121,122,121,119,121,121,121,120,120,121,120,118,120,121,122,121,122,122,119,115,121,121,123,122,122,122,120,126,121,122,122,121,121,120,120
125,122,121,121,120,121,121,120,116,121,121,122,122,122,121,119,121,122,121,123,122,121,120,119,125,121,121,120,121,121,121,121,121,121,120,121,120,121,121,121,119,120,121,121,122,122,121,120,119,121,121,122,121,121,122,120,122,122,122,122,121,121,121,121,121,121,120,124,122,121,122,121,124,120,121,119,119,121,121,120,117,120,120,120,121,121,121,120,116,122,122,125,123,122,121,121,121,121,120,122,121,121,121,121,123,122,121,120,120,121,121,120,121,122,121,123,122,121,121,119,125,121,121,121,121,121,121,120
121,122,120,122,120,121,122,121,117,122,121,123,121,120,121,120,122,120,121,122,122,121,121,120,121,121,121,121,121,121,121,121,123,122,121,122,121,121,121,119,120,122,121,120,120,121,121,120,122,121,120,123,121,121,121,120,120,122,121,123,121,121,121,121,122,122,121,116,120,121,122,121,123,122,122,124,121,121,121,121,115,123,121,122,121,121,121,120,118,121,121,122,121,121,121,120,115,122,121,123,121,121,122,121,119,121,121,119,120,120,121,120,119,121,120,121,120,120,120,119,122,121,120,123,122,121,121,121
122,121,121,122,122,122,122,122,126,120,121,120,120,121,121,120,119,121,120,122,121,121,121,121,122,121,119,118,120,121,122,121,123,121,121,124,121,120,121,121,118,123,122,124,121,122,122,121,125,120,121,119,119,121,121,119,120,121,120,123,123,121,122,120,123,121,122,124,121,120,121,120,118,121,121,121,122,122,122,120,120,120,121,121,118,120,121,121,121,122,121,123,122,120,120,120,119,122,121,122,121,121,121,120,117,121,120,121,121,121,122,121,123,121,121,123,122,121,120,119,123,121,121,119,120,121,122,120
121,122,121,121,122,121,122,121,122,121,122,124,122,121,121,119,118,120,121,120,119,120,121,121,120,121,120,122,122,121,121,121,123,122,121,124,122,121,120,120,121,121,120,120,119,120,121,121,121,123,121,123,123,121,121,121,121,121,121,121,121,121,120,120,121,122,121,121,121,121,121,119,119,121,121,122,122,121,120,120,114,122,122,123,122,121,121,120,122,121,120,121,122,122,121,120,122,121,120,122,121,121,122,120,120,121,121,122,122,121,121,119,121,121,121,121,121,121,121,121,121,121,121,122,120,120,121,121
120,122,120,119,120,121,121,119,119,121,122,126,123,121,121,120,119,121,121,118,120,121,120,120,124,122,121,124,122,120,121,121,122,122,121,121,120,121,122,120,120,121,121,122,121,121,121,119,120,121,121,122,122,122,121,120,119,123,122,122,123,122,122,120,120,121,121,123,122,121,121,119,121,121,120,122,122,120,120,120,119,121,121,120,120,122,121,120,117,122,121,123,122,122,122,121,122,121,122,122,121,121,122,120,122,121,121,124,122,120,120,120,116,120,120,119,120,121,121,119,120,121,121,121,121,121,121,120
121,121,122,124,123,122,121,120,124,122,121,120,120,121,121,121,119,120,120,122,121,121,121,121,120,122,121,121,120,122,121,120,123,122,121,122,121,121,121,120,119,121,121,122,122,122,121,121,119,121,121,123,121,121,121,119,122,122,120,120,121,121,122,121,120,121,122,123,121,122,121,121,122,122,121,122,122,122,122,120,119,121,120,122,120,121,122,121,121,121,120,119,120,120,121,121,121,122,121,121,121,121,121,121,122,122,122,123,122,121,121,120,117,121,120,122,121,121,121,120,123,121,120,121,121,121,121,120
119,122,120,121,121,121,122,121,126,120,121,122,121,121,122,121,118,120,120,120,120,121,121,119,123,122,120,122,121,121,122,120,121,121,120,122,122,121,122,122,117,122,122,123,122,122,122,121,118,120,120,122,121,121,121,120,119,121,119,120,121,121,122,120,122,120,122,125,122,121,121,120,117,123,121,117,120,121,122,120,120,121,121,123,121,121,121,120,121,121,121,122,121,121,121,121,119,120,121,122,121,121,122,121,122,122,121,122,122,121,121,120,124,121,120,121,121,121,121,120,122,121,121,121,120,121,121,119
119,122,121,124,123,121,122,120,116,122,122,121,120,120,121,120,118,122,121,121,120,121,122,121,122,122,120,121,121,121,121,120,120,121,120,122,122,121,122,120,121,121,121,121,120,121,122,121,116,121,121,123,122,121,121,120,122,122,121,122,122,121,121,121,122,123,121,124,121,121,121,121,120,120,119,118,119,121,121,121,118,121,121,122,121,121,121,119,124,121,122,123,123,121,121,120,119,121,121,122,122,121,121,119,120,120,121,122,122,121,122,121,121,122,120,121,122,121,121,121,123,122,121,119,119,121,121,121
121,121,122,124,122,120,120,120,120,122,119,119,120,121,122,120,122,120,121,124,123,121,121,120,121,121,121,122,122,121,121,120,123,122,120,122,122,121,122,120,117,120,121,123,121,120,120,120,123,121,121,119,121,121,121,120,113,123,121,122,122,122,121,120,121,121,121,122,121,122,121,121,122,121,121,121,122,121,121,119,120,121,121,122,122,122,121,120,120,121,122,122,121,120,121,121,121,121,120,120,120,121,122,121,119,120,121,123,123,122,121,120,120,122,121,124,121,121,121,120,120,120,120,117,120,121,121,119
122,122,121,125,122,121,121,120,121,121,122,123,121,121,121,121,116,122,120,121,122,121,121,119,121,121,121,122,121,121,120,119,124,121,121,123,122,121,121,120,119,121,120,120,121,121,122,120,119,121,122,122,120,121,121,120,124,121,120,121,121,121,122,120,119,122,122,122,121,121,122,120,124,120,121,121,120,121,121,121,120,120,121,124,123,121,122,121,118,121,120,118,119,121,122,120,120,121,120,122,121,121,121,121,124,121,121,122,123,121,121,120,120,121,121,122,121,121,122,120,121,121,121,120,120,121,121,120
122,122,121,122,121,121,121,121,115,122,122,124,122,122,122,121,121,121,120,118,121,121,121,121,120,121,120,122,121,121,122,121,121,122,120,122,121,121,121,122,116,121,121,122,121,121,121,120,119,121,121,121,121,121,121,121,124,122,121,121,119,120,121,121,121,121,120,121,122,122,122,120,120,122,121,121,121,121,122,121,120,122,121,122,121,121,121,120,120,121,120,121,120,121,122,120,121,121,121,123,121,121,121,120,121,122,121,121,122,121,121,120,123,122,121,123,121,120,121,120,118,121,121,117,119,120,120,120
122,121,121,125,122,121,121,119,118,121,120,121,122,122,122,120,121,122,121,122,121,121,122,120,120,122,121,121,121,121,121,121,122,121,121,123,122,122,122,120,118,122,121,121,121,121,122,120,117,121,121,121,121,121,121,120,121,120,121,123,122,121,122,120,120,123,121,121,120,121,121,121,119,122,121,122,121,121,121,120,120,122,121,122,121,120,120,119,121,122,121,122,121,121,121,120,121,122,121,123,122,121,121,120,119,121,121,120,120,121,122,121,119,122,121,123,122,121,121,120,122,122,121,123,122,121,121,119
124,120,120,118,118,121,121,120,118,120,120,123,123,121,121,120,119,121,121,122,121,121,121,121,122,122,122,123,122,121,122,120,120,121,120,121,121,121,122,121,121,121,120,121,121,121,121,120,118,121,120,121,121,121,122,120,118,122,122,123,122,121,121,121,121,120,120,121,121,121,121,120,119,120,121,122,121,121,121,121,116,121,121,123,122,121,121,120,121,121,121,121,120,121,121,120,123,122,121,123,121,120,121,121,118,121,121,122,123,121,121,120,118,121,122,122,121,121,120,120,121,121,121,123,121,121,121,120
122,121,121,122,121,121,121,120,119,121,121,121,120,121,121,119,119,122,121,120,122,120,121,120,122,121,121,123,122,121,121,121,121,122,121,120,119,121,122,120,116,121,121,123,122,121,122,120,122,120,121,122,122,121,122,120,120,122,121,123,121,121,121,119,116,121,121,123,121,121,121,121,121,122,121,121,121,121,121,120,120,121,120,122,120,121,122,121,122,123,122,122,121,121,121,120,122,122,122,121,120,121,121,121,122,122,121,119,119,121,122,120,119,121,122,125,121,121,121,120,121,122,121,118,120,121,121,120
119,122,121,123,121,121,121,121,119,122,121,121,121,121,121,121,116,121,121,122,122,121,121,120,120,122,121,121,121,121,122,121,121,122,119,121,121,121,122,120,120,121,121,122,122,120,121,120,122,122,122,122,122,120,121,119,121,122,121,121,119,120,121,121,122,121,121,122,122,121,121,120,118,120,121,121,121,121,122,120,123,121,121,123,123,121,121,120,119,121,120,122,120,121,122,121,123,121,120,122,122,121,121,120,119,121,121,119,119,121,121,120,120,122,121,124,122,122,122,120,122,121,121,122,122,121,122,120
123,122,121,122,122,121,121,120,114,121,120,121,121,121,121,121,120,123,121,122,122,122,122,120,124,121,122,123,122,120,121,120,119,121,120,119,118,121,122,120,120,121,120,123,122,122,121,120,118,120,120,121,121,121,122,121,119,121,121,122,122,120,121,120,122,121,121,121,121,121,122,121,119,120,120,122,121,121,120,120,122,121,120,122,121,121,122,120,125,121,121,121,121,121,122,120,121,120,120,122,121,121,121,121,119,120,120,120,122,122,122,121,118,121,119,121,120,121,122,120,125,120,120,121,121,121,121,121
118,121,122,124,122,121,121,119,119,122,121,122,120,120,121,119,120,121,120,122,121,122,121,119,120,122,122,123,122,122,122,121,125,121,120,122,121,121,121,121,119,120,121,121,121,121,121,120,119,122,122,121,120,120,121,120,122,121,121,121,122,121,121,120,123,122,120,122,121,121,121,121,118,122,121,121,119,120,121,120,117,121,120,121,121,121,121,120,122,122,121,123,121,121,121,121,126,121,121,123,122,121,121,120,119,121,121,119,119,121,121,120,118,120,121,122,120,120,121,119,120,121,121,123,122,121,122,121
125,121,120,122,121,121,121,121,120,121,121,121,122,121,122,121,119,121,120,120,119,120,121,120,119,121,120,121,122,121,122,120,120,122,121,122,122,122,121,121,121,122,121,121,120,121,122,121,121,122,121,121,121,121,121,121,122,121,122,122,122,121,120,120,116,122,121,123,121,122,122,120,120,121,120,122,121,121,122,121,121,122,121,122,121,120,121,120,122,122,121,123,121,120,121,119,119,122,121,120,119,121,122,120,121,120,121,123,122,122,121,120,117,122,122,125,122,121,121,120,119,120,120,115,119,121,122,120
121,121,121,125,122,121,121,119,119,122,121,123,122,122,122,121,119,120,121,121,120,121,122,121,123,121,120,122,122,121,121,120,119,122,121,122,122,121,120,120,120,122,121,122,121,122,122,120,118,121,122,121,121,121,121,119,118,121,121,122,121,121,121,120,123,122,121,122,121,122,121,120,121,121,120,121,121,121,121,120,120,120,121,122,121,121,121,119,121,121,120,121,121,121,121,120,121,121,122,123,121,120,121,119,118,121,121,122,121,120,121,120,118,123,121,123,122,121,122,121,122,122,120,122,120,121,122,121
125,121,121,121,120,120,121,120,116,120,121,121,120,120,120,119,120,122,121,123,123,121,121,121,121,122,121,121,122,121,120,120,122,122,121,122,121,121,122,120,119,120,121,122,121,122,121,120,118,120,121,122,121,121,121,120,122,120,121,122,121,121,121,120,120,121,121,122,121,121,122,121,119,121,121,122,122,122,121,119,119,121,120,121,121,121,122,120,125,122,122,124,123,121,120,120,122,122,120,117,119,121,121,120,118,122,119,122,121,121,122,120,116,121,120,122,121,121,122,121,119,123,122,123,122,122,121,121
122,121,121,121,121,121,122,120,119,120,120,120,120,121,122,119,120,121,121,122,121,120,121,120,117,122,122,122,122,121,121,121,126,120,121,123,121,121,121,120,117,121,121,121,121,120,121,120,121,121,121,123,122,121,121,120,122,121,121,123,123,121,122,121,124,122,121,124,121,120,121,121,119,121,120,118,119,121,121,120,118,120,121,122,120,121,122,120,122,121,121,122,122,121,121,120,127,122,122,122,121,121,121,121,117,121,121,123,121,121,121,120,118,120,120,119,119,121,121,120,119,121,121,121,121,120,121,121
119,122,122,124,122,122,121,121,121,121,121,122,122,121,122,119,119,119,121,123,122,121,120,120,119,121,120,119,120,121,122,121,120,123,121,122,121,122,121,121,117,121,121,123,122,121,121,120,119,121,121,123,122,121,122,120,122,121,121,120,120,121,122,121,121,123,121,121,120,121,121,122,119,122,121,122,121,121,121,120,121,121,120,122,121,121,122,121,122,121,121,121,121,120,121,120,121,122,121,121,121,121,121,121,118,123,121,122,122,121,122,120,121,121,121,122,122,122,121,119,119,121,121,122,121,121,121,120
124,121,121,123,122,121,122,121,121,121,120,118,119,120,121,120,119,121,120,123,122,121,121,120,119,121,120,122,121,121,121,120,123,122,120,121,120,121,122,120,118,122,121,123,122,121,121,120,121,120,121,120,121,121,121,120,120,122,121,123,122,122,121,120,122,121,121,121,119,121,121,121,122,122,120,120,119,120,121,120,118,121,121,124,123,122,122,120,121,122,121,120,121,121,121,120,120,122,121,122,122,120,121,120,120,121,121,122,121,122,121,119,115,122,120,122,122,122,121,119,118,123,121,122,120,120,120,120
122,122,121,120,120,121,122,120,123,121,121,121,122,121,121,120,118,120,120,122,121,122,122,120,121,121,120,122,122,121,122,120,123,122,121,121,121,121,120,120,121,122,122,123,121,120,121,121,119,120,121,122,121,121,122,120,125,121,121,122,121,122,121,120,120,120,121,122,122,121,122,122,119,120,121,121,121,121,121,119,118,120,120,121,121,121,121,120,124,122,121,123,122,121,122,121,119,122,122,124,122,121,121,121,118,121,119,115,119,121,122,119,122,121,120,123,122,121,121,121,118,122,122,123,122,121,122,120
121,121,121,119,119,121,121,121,120,121,121,123,123,121,120,120,116,121,121,121,122,121,122,120,120,121,121,122,122,121,121,120,126,120,121,120,121,122,122,121,118,121,120,123,121,121,121,120,119,121,121,122,122,121,121,119,121,121,121,123,122,121,122,120,122,122,122,121,120,121,121,121,123,121,121,123,122,120,121,120,119,121,120,121,119,121,122,121,121,121,120,122,121,121,121,119,118,123,122,121,122,121,122,121,120,121,122,124,122,121,121,120,119,122,121,122,122,120,121,120,118,120,121,121,119,121,121,120
120,121,121,123,122,121,122,121,121,121,122,122,122,121,120,120,120,122,121,122,122,120,121,120,120,120,121,120,120,121,122,120,122,121,120,122,121,121,122,121,122,121,120,122,122,122,121,119,118,120,120,121,121,121,121,121,121,121,121,121,122,122,122,121,122,120,121,122,121,121,121,119,122,122,122,126,124,122,121,121,122,121,120,115,118,121,121,120,121,122,119,123,121,121,121,121,121,122,121,122,122,121,121,121,118,121,121,122,122,121,122,120,120,121,121,120,120,121,121,120,120,121,121,122,122,121,122,121
120,121,120,121,121,122,122,120,123,122,121,122,121,120,121,120,117,120,121,120,121,122,121,120,117,121,121,122,121,121,121,122,121,122,121,122,121,121,122,121,117,120,120,121,121,121,121,121,116,122,122,123,122,122,122,120,120,121,121,123,122,121,121,121,124,121,120,118,119,121,121,121,121,121,120,123,122,121,122,120,122,121,121,121,119,121,122,120,120,121,121,123,122,120,121,120,122,122,121,122,121,121,121,120,120,121,120,121,121,121,122,120,120,121,121,121,121,122,121,121,123,121,121,122,122,121,120,120
119,122,120,123,121,121,122,121,121,120,121,123,121,121,121,120,119,121,121,118,120,121,121,121,118,122,121,124,123,122,121,120,124,121,121,121,121,122,121,119,114,122,121,123,121,120,121,121,117,120,121,121,121,121,121,120,116,121,121,121,121,121,122,121,123,123,122,125,123,121,121,120,122,121,121,118,120,121,121,119,117,120,120,123,120,121,121,120,120,122,121,124,123,122,121,120,120,122,122,121,121,120,121,121,121,121,120,121,121,121,122,120,119,121,121,122,122,122,122,120,121,122,120,122,122,121,122,120
124,122,121,120,119,120,121,121,116,121,120,122,121,121,121,120,121,119,120,122,122,122,121,119,118,122,122,122,122,121,121,120,126,121,121,123,120,121,121,121,119,121,120,119,121,121,120,119,118,120,121,125,123,122,121,119,122,121,121,118,119,121,122,120,120,122,121,123,121,122,122,120,121,122,121,122,122,121,120,120,122,122,121,122,122,121,121,120,121,120,121,121,121,121,121,121,121,121,122,124,122,120,121,120,124,121,120,118,119,121,121,121,122,123,122,122,120,120,121,120,120,121,121,122,122,122,122,121
124,121,120,122,121,121,121,121,118,120,121,121,121,122,121,121,119,121,120,122,120,120,121,120,122,121,122,122,121,122,121,119,125,122,120,121,121,121,122,121,118,123,121,122,121,121,122,121,119,121,122,122,122,121,122,120,122,120,121,122,120,121,121,120,120,123,122,124,122,120,121,121,121,122,121,118,118,120,121,120,120,122,120,123,121,121,122,121,119,121,121,123,122,122,121,120,121,120,121,122,121,122,122,121,122,121,122,123,122,121,121,120,124,121,120,121,120,121,122,121,117,120,121,122,121,121,122,119
118,122,120,121,121,121,122,121,121,121,121,122,122,121,122,120,114,122,121,121,120,122,122,121,121,122,121,123,122,120,121,120,124,122,121,121,119,120,121,121,121,121,120,123,122,121,122,120,116,122,121,122,122,121,122,121,121,120,121,120,121,122,122,120,120,122,122,125,124,122,121,120,123,121,121,119,117,120,121,121,122,121,120,122,121,120,121,120,122,122,120,122,122,121,121,121,121,121,121,122,122,122,121,119,124,121,121,121,121,121,121,121,117,121,122,123,121,120,121,119,122,121,121,122,122,121,121,120
123,122,121,121,121,121,121,120,120,123,121,121,121,121,121,121,119,121,121,122,121,122,121,120,117,123,122,123,121,121,122,121,123,122,121,123,122,121,122,120,122,122,120,119,119,121,122,121,118,120,121,123,122,122,121,120,119,121,122,122,120,120,122,120,118,121,121,121,120,121,121,119,120,122,121,123,123,122,121,120,123,122,120,121,122,121,121,120,120,122,121,121,120,121,121,121,124,122,122,122,122,120,121,120,123,121,122,121,121,121,121,120,119,120,120,122,122,121,122,120,118,121,122,120,121,122,121,120
121,122,122,122,122,121,120,120,123,121,121,122,121,122,121,120,119,121,120,120,121,121,121,121,121,120,121,123,122,121,121,120,122,121,121,121,121,121,120,120,121,121,119,121,121,121,122,121,119,120,122,123,120,121,122,120,120,121,120,118,118,121,121,121,116,122,122,123,123,121,121,121,124,122,121,123,122,121,121,121,118,121,121,122,122,121,121,119,119,120,120,121,120,121,122,122,120,122,121,123,122,120,121,120,121,122,121,121,120,122,122,122,119,121,119,123,121,121,121,120,118,120,120,120,121,121,121,120
120,122,121,122,121,120,121,120,116,122,122,121,122,122,122,121,119,122,121,123,122,120,121,120,125,121,119,120,119,121,122,120,121,122,122,124,123,120,120,120,121,121,120,119,119,121,121,121,118,120,122,123,123,121,120,119,119,121,121,123,122,121,121,120,121,121,121,122,121,121,122,121,119,122,121,121,120,121,121,119,120,120,121,123,122,121,120,119,118,122,121,122,122,121,122,121,120,122,121,121,121,122,121,120,120,121,120,122,121,122,121,120,117,121,122,123,122,121,121,121,120,122,121,121,121,121,121,120
121,121,120,123,122,121,122,121,117,122,120,122,121,121,122,120,118,122,121,119,120,121,122,121,120,122,121,123,122,121,121,120,118,121,121,122,121,122,121,120,124,119,119,121,121,121,121,119,121,121,121,123,122,121,122,122,123,122,122,120,120,121,121,120,120,121,121,124,121,120,121,118,119,121,119,121,121,121,120,119,121,123,122,122,121,121,121,120,123,120,121,123,121,121,121,119,122,121,122,123,120,120,121,121,120,121,121,121,120,120,121,120,120,120,120,121,121,121,121,120,124,120,120,122,121,121,121,119
121,123,121,120,122,120,121,120,123,122,122,122,120,121,121,120,121,120,120,122,121,121,121,120,114,120,121,122,122,121,123,120,122,123,122,122,121,122,123,121,121,122,120,121,120,119,119,119,119,123,121,122,121,121,122,121,123,121,121,122,121,121,122,119,120,122,121,122,122,121,121,121,119,121,122,121,119,119,121,120,120,121,120,122,121,121,121,120,118,121,122,121,121,121,121,120,125,121,120,123,122,121,122,122,121,122,120,119,119,120,122,121,123,120,119,120,120,121,122,121,121,122,121,122,122,121,122,121
124,121,122,122,121,121,121,120,120,120,121,121,121,122,121,120,115,123,122,123,121,120,121,120,128,120,120,120,120,120,121,120,116,123,122,122,121,122,122,120,118,121,121,122,122,122,121,121,119,121,121,121,121,121,122,122,126,120,120,121,120,120,120,119,116,125,122,123,121,122,122,121,121,121,121,122,122,122,121,121,114,121,121,122,122,122,122,121,115,120,119,121,122,121,121,118,137,123,121,120,120,120,121,123,117,124,123,123,122,122,123,123,116,120,121,122,121,120,120,117,121,119,120,120,119,121,121,118
120,122,120,121,121,121,121,121,118,123,121,123,122,121,122,122,126,119,121,121,122,124,122,121,119,124,121,122,122,120,121,123,120,119,120,121,120,119,120,119,112,121,121,122,121,122,122,119,133,123,121,121,121,122,120,120,111,125,122,121,120,121,121,119,133,122,123,123,121,121,124,124,117,125,123,122,122,122,122,122,129,117,117,120,120,120,120,121,118,134,126,123,122,122,122,119,120,118,120,121,120,120,120,120,123,118,118,120,120,121,120,120,122,122,124,123,122,121,123,126,137,122,120,120,121,124,121,120
114,130,123,123,122,123,124,123,119,118,120,121,120,120,121,121,118,125,123,123,122,123,121,120,112,120,120,121,122,122,121,120,120,116,115,121,122,123,123,122,114,129,123,122,121,120,119,120,120,120,120,122,121,116,119,120,119,117,115,119,119,124,124,119,126,116,123,123,121,118,121,123,119,132,122,121,121,120,114,118,118,108,119,121,121,120,124,118,132,126,121,122,121,123,124,120,117,121,119,121,121,119,121,123,111,123,123,122,121,122,117,119,110,118,120,121,122,122,122,118,119,122,122,123,123,122,123,121
130,120,123,124,121,120,120,121,105,126,125,124,121,120,121,115,123,120,114,117,119,121,120,120,124,125,127,123,122,121,122,121,118,123,120,124,122,122,121,122,118,121,121,124,121,120,123,119,120,121,119,123,127,125,120,122,111,125,128,121,119,117,116,116,121,122,123,125,123,122,121,119,123,119,115,121,120,122,123,122,119,122,126,126,122,121,122,121,117,126,118,122,121,121,122,119,136,130,120,117,122,120,121,122,118,124,123,124,121,127,124,122,120,117,125,125,122,121,122,120,120,119,110,110,121,113,117,119
120,122,119,125,123,121,118,119,114,121,119,118,120,122,124,120,127,123,118,116,119,121,122,126,119,117,126,126,121,120,121,115,121,119,124,129,123,122,124,126,121,124,119,118,121,119,119,116,120,120,115,114,119,121,122,122,122,117,115,118,119,119,121,122,120,127,125,123,117,119,122,120,121,122,117,125,127,127,123,122,115,118,116,119,114,106,104,111,118,122,115,117,124,123,121,120,123,122,125,125,121,121,125,122,114,120,123,125,122,122,123,121,120,124,128,124,122,122,121,120,115,116,116,118,120,120,120,118
128,119,120,125,121,122,123,125,125,128,114,114,121,123,123,122,121,118,125,125,121,120,120,121,117,117,122,122,120,121,121,120,123,122,121,122,121,119,117,121,121,126,120,121,120,118,126,121,119,122,125,122,120,122,120,119,117,120,119,121,121,119,118,119,125,117,118,121,120,121,119,116,120,117,120,121,121,119,122,123,116,127,123,122,122,121,120,119,123,117,118,119,120,123,118,117,119,120,120,121,120,118,130,120,120,120,120,124,126,123,119,120,119,118,120,120,119,119,121,120,120,119,121,122,123,120,116,118
124,120,119,121,120,121,129,126,121,127,126,122,122,118,115,119,119,115,121,121,119,115,119,118,127,112,121,128,127,125,121,120,121,120,108,117,121,118,119,120,116,123,126,125,122,121,121,120,120,122,126,124,120,119,120,120,119,126,121,122,123,125,122,121,118,115,119,123,123,128,124,118,119,118,120,120,116,115,121,120,122,134,125,123,123,118,118,117,118,116,117,121,122,128,125,123,123,124,122,121,120,118,115,115,127,122,117,120,121,121,129,130,123,115,122,124,123,120,116,121,118,128,127,122,120,114,119,115
123,120,119,122,120,121,125,120,127,130,127,124,127,128,122,121,119,110,115,121,122,122,122,121,120,120,124,120,120,121,121,120,119,101,108,119,119,114,120,124,127,129,123,121,121,131,128,118,99,118,126,124,119,117,117,115,127,109,116,120,119,118,122,120,122,110,96,105,118,121,121,122,121,111,121,126,126,127,119,120,111,112,128,124,120,118,119,117,129,144,129,127,123,122,125,122,124,119,118,120,120,120,120,121,122,117,95,93,114,119,120,121,118,128,135,131,123,121,121,121,120,119,130,131,123,121,122,120
121,126,116,112,111,112,126,123,119,121,126,128,130,130,119,122,117,124,113,113,117,117,119,116,121,124,122,125,121,122,125,123,130,123,122,124,121,122,124,120,115,119,123,123,118,111,117,122,119,118,112,115,121,119,118,122,120,122,124,125,126,129,125,121,126,121,123,124,123,124,122,118,121,124,125,124,121,125,126,123,124,123,112,117,119,117,117,119,117,118,121,120,121,124,125,119,123,125,134,138,128,123,124,122,127,127,105,103,117,114,113,121,118,124,126,125,120,118,117,117,119,121,128,129,122,122,128,122
135,129,115,121,124,123,121,120,119,125,129,124,121,119,122,124,118,122,115,120,122,124,123,122,126,124,123,120,119,120,123,121,121,127,123,126,123,121,119,117,122,123,119,120,121,124,125,122,118,111,119,121,120,120,119,117,125,112,122,120,120,114,119,120,124,121,125,126,123,126,123,120,119,120,122,121,122,128,126,119,119,115,121,117,120,118,119,119,116,113,111,114,119,118,121,120,119,123,122,124,121,120,121,122,121,120,127,126,124,125,123,118,121,114,113,120,121,118,119,120,120,118,126,124,124,122,121,120
125,102,123,127,125,123,124,122,125,124,127,127,127,125,123,123,116,124,121,120,122,125,125,114,121,127,123,125,121,120,117,121,124,126,120,122,118,116,124,119,119,121,107,108,119,119,121,123,121,123,123,126,123,115,127,122,116,125,125,123,124,126,120,117,120,128,127,124,121,126,120,122,127,126,129,125,122,126,125,122,115,122,124,124,122,128,128,122,118,118,115,119,121,119,120,120,118,127,126,125,122,121,121,117,123,115,119,119,120,121,120,118,122,124,123,124,122,122,122,123,121,122,127,131,122,121,121,122
119,111,81,93,115,120,123,123,121,125,137,131,121,119,118,118,122,113,125,125,126,125,125,122,116,114,123,124,120,120,120,121,126,126,121,121,120,117,117,121,119,114,122,123,122,124,123,117,118,120,118,120,121,123,123,118,121,128,123,119,118,115,119,121,120,121,113,117,117,114,113,121,117,119,123,123,127,131,127,121,127,122,119,125,120,121,123,122,117,126,131,126,122,124,124,119,121,121,105,109,118,120,118,118,120,122,120,127,120,115,121,121,126,118,114,117,122,132,127,117,118,123,116,119,120,116,118,120
123,125,128,124,121,124,121,122,118,122,124,121,120,120,121,119,114,118,113,117,121,121,121,120,117,117,120,122,121,120,120,119,123,126,133,127,123,121,119,119,122,117,114,120,121,122,122,121,116,115,129,126,124,120,119,122,121,122,122,123,121,122,128,120,122,126,122,122,120,113,112,120,120,122,121,122,123,135,129,119,117,119,119,120,118,115,117,118,122,122,121,121,121,122,119,113,126,124,120,121,122,125,124,125,122,121,122,122,122,118,115,123,117,121,118,122,124,125,119,115,120,120,121,120,121,127,134,121
120,124,120,122,121,117,114,119,119,125,122,122,121,120,120,123,120,117,121,121,120,116,117,120,117,124,121,123,122,127,128,124,124,123,122,122,123,118,118,122,119,124,123,122,120,118,121,119,127,118,120,121,120,119,116,123,117,119,123,124,126,135,136,120,130,121,121,121,121,118,116,121,119,125,118,120,120,120,123,121,117,120,126,125,123,119,119,120,122,114,101,110,117,116,116,120,126,125,133,130,126,126,129,123,118,122,115,116,119,115,115,116,121,121,123,123,122,120,119,119,125,124,121,123,123,123,122,123
119,122,122,124,123,121,122,121,127,127,139,130,123,123,124,123,119,115,110,114,117,117,119,118,123,119,121,124,122,120,121,122,123,123,129,127,122,121,121,117,124,121,123,124,125,118,119,125,122,123,122,121,121,124,121,119,123,122,119,121,123,124,124,122,124,122,120,122,122,118,118,121,119,120,118,118,120,123,120,119,117,117,122,121,119,117,124,118,120,123,121,120,120,119,117,119,124,125,121,123,122,119,121,123,121,119,117,120,120,128,129,119,119,120,122,120,121,121,120,121,115,120,119,120,120,118,119,121
120,127,126,125,123,127,124,119,121,116,106,114,119,118,119,120,117,117,124,122,122,121,121,121,122,127,121,121,120,124,121,118,121,114,121,121,121,121,122,121,123,119,118,120,122,118,119,122,118,127,122,122,118,124,124,119,121,110,115,119,120,117,117,121,122,134,125,121,121,125,124,121,128,124,123,127,122,110,113,122,112,116,117,117,120,130,134,120,120,123,123,119,112,114,116,120,119,123,118,128,131,125,120,121,124,102,121,124,121,118,128,125,111,141,122,120,121,116,114,116,130,132,126,123,124,128,127,123
123,128,121,125,128,110,109,119,122,111,118,124,114,137,141,121,118,140,124,119,124,125,123,123,118,110,117,122,124,113,115,126,124,144,123,124,124,133,127,115,123,132,119,121,120,119,131,128,117,128,121,122,121,122,119,118,120,135,133,132,128,125,123,123,118,150,109,116,119,121,121,119,116,155,120,118,121,121,121,120,125,132,131,127,123,123,123,123,123,93,118,124,123,114,115,120,122,103,123,121,123,133,131,125,117,126,120,115,115,111,115,117,127,125,119,128,127,122,127,122,119,108,131,125,125,120,118,121
122,114,118,119,121,122,122,119,119,108,123,122,122,113,117,122,121,131,123,123,121,144,131,118,117,164,120,123,124,128,130,124,123,179,130,125,122,114,119,131,123,151,120,120,121,129,129,114,118,142,115,122,123,117,123,123,120,179,123,122,123,122,120,120,118,181,112,117,122,123,123,121,124,182,114,122,121,114,113,117,120,50,127,124,120,126,138,129,121,20,125,122,122,133,132,119,117,63,124,121,120,117,117,121,126,73,123,123,122,123,123,121,113,83,122,120,123,124,113,119,119,77,123,134,129,118,118,116
118,85,134,124,121,126,125,123,120,98,113,117,121,127,136,123,112,85,115,110,112,105,100,113,118,107,127,125,121,124,116,120,123,116,126,123,119,120,133,122,115,125,124,127,123,121,116,116,122,123,119,117,121,114,112,116,117,112,120,123,122,122,130,124,122,121,124,125,122,116,116,123,119,127,127,127,123,123,120,121,117,118,111,117,120,118,118,119,118,107,122,121,120,122,128,118,119,118,125,123,121,120,117,120,122,117,127,126,123,123,124,121,116,123,125,124,122,123,133,118,124,104,115,119,124,117,113,121
119,108,125,119,113,109,103,114,120,115,122,124,123,123,126,122,123,108,119,120,120,128,130,121,124,125,119,122,124,126,124,125,112,228,123,124,120,124,125,118,115,241,108,113,117,114,121,118,123,241,122,124,126,145,126,120,120,242,123,126,120,116,122,123,124,242,125,123,121,121,122,123,120,156,113,119,119,118,118,119,123,0,120,117,119,120,122,119,122,0,125,119,117,118,119,122,123,0,123,123,121,122,123,120,120,0,124,122,120,119,115,118,115,0,123,120,121,122,126,123,119,0,124,125,122,118,114,119
124,0,117,119,121,137,136,122,123,11,125,124,121,113,106,120,119,144,121,124,125,125,128,119,120,222,117,121,119,122,127,123,124,241,119,123,124,118,118,120,120,240,117,119,117,115,117,119,122,211,120,125,123,120,123,122,118,198,119,120,122,125,123,120,118,181,118,122,122,122,125,121,118,165,121,122,121,121,121,118,125,137,117,122,122,122,115,119,117,143,113,114,118,121,127,123,119,131,120,122,118,113,117,120,121,142,125,122,122,128,120,118,120,127,123,126,123,121,127,125,121,141,121,123,123,120,119,120
125,142,122,120,121,118,119,121,122,135,122,122,123,123,116,121,114,122,115,117,116,122,129,121,119,131,120,123,125,120,119,120,118,128,120,122,118,110,115,119,125,136,131,125,122,117,115,122,120,122,110,109,116,136,136,120,120,102,115,122,120,119,115,118,124,130,122,119,119,113,114,118,119,136,126,126,124,127,119,121,120,124,121,122,120,118,120,120,117,128,119,118,120,134,140,121,120,135,126,125,120,101,94,116,122,145,133,119,119,129,137,123,124,120,122,125,122,114,117,119,116,113,110,115,117,112,114,118
121,124,123,121,120,111,112,121,117,133,119,119,112,114,130,121,121,123,123,128,132,146,130,124,119,114,109,113,116,107,113,116,119,120,127,125,118,102,109,122,121,122,123,123,127,150,140,122,121,122,123,123,122,124,126,121,125,119,114,118,120,127,126,126,111,120,116,115,115,110,110,111,125,125,124,122,122,116,114,123,117,122,123,124,122,130,132,122,125,108,116,117,121,123,124,122,121,130,125,123,121,124,121,117,118,120,113,121,121,111,111,120,124,118,117,118,121,134,125,121,116,117,124,125,122,120,119,120
122,126,122,123,122,127,125,122,125,127,129,122,118,105,107,121,117,106,106,118,121,135,132,119,115,121,138,126,121,110,113,123,126,120,117,121,124,121,120,124,115,121,122,121,119,118,127,118,122,123,129,127,122,119,107,116,113,115,121,126,120,114,122,117,135,119,108,108,122,125,117,122,117,127,123,127,121,122,121,120,117,114,118,120,119,123,121,120,121,124,126,123,124,133,135,121,130,126,123,123,120,114,114,122,116,117,105,109,115,116,123,121,118,122,120,122,119,117,119,120,120,119,123,125,123,126,122,117
121,116,127,126,123,125,127,123,124,128,116,117,118,124,131,122,113,116,121,122,122,107,112,117,123,119,124,124,122,134,128,123,121,132,122,123,121,132,124,120,124,120,120,121,119,113,123,121,125,121,126,123,122,122,123,123,122,124,125,125,123,121,124,124,117,121,110,118,118,117,113,116,119,126,126,122,122,112,113,118,121,125,128,126,126,157,149,123,120,122,118,121,121,115,114,122,120,129,119,121,117,104,115,117,123,123,120,120,121,122,118,118,124,121,122,124,127,139,130,121,118,126,118,118,115,110,112,122
121,117,111,113,117,114,117,119,122,127,130,127,125,127,130,123,122,118,118,123,120,110,116,119,120,119,124,120,120,122,119,117,123,123,113,117,120,123,119,121,120,132,126,124,124,132,131,121,117,119,129,125,121,114,117,120,122,121,120,127,125,120,120,119,125,119,116,121,123,138,140,124,122,120,118,119,120,110,119,120,118,122,123,122,121,120,118,123,121,116,113,118,119,132,131,118,122,128,124,122,124,131,124,123,115,129,123,124,119,102,116,117,117,114,116,122,123,124,117,122,122,113,122,126,122,130,134,122
121,126,121,120,122,118,116,122,122,130,125,120,120,120,116,118,125,123,118,126,126,131,122,120,115,119,127,127,122,121,123,122,126,118,116,117,119,117,123,124,120,124,117,121,125,137,122,118,115,123,126,122,115,101,117,118,121,120,119,120,122,127,124,120,120,123,123,125,121,99,110,117,119,119,119,121,120,137,138,122,121,126,118,122,124,120,112,125,117,112,120,123,124,130,131,123,124,126,122,123,116,103,109,117,120,122,121,120,121,136,138,123,119,116,120,119,121,120,119,120,118,119,125,123,119,110,116,120
120,118,113,119,119,118,126,120,120,133,133,129,127,118,116,119,124,115,114,120,122,119,121,125,118,121,118,117,119,130,142,119,128,123,117,123,122,124,113,126,119,130,123,122,118,110,126,121,121,119,124,129,132,133,103,117,118,105,119,122,122,117,129,124,118,131,132,122,116,102,109,118,118,132,123,123,127,172,152,125,122,117,116,120,120,105,108,120,121,120,121,120,118,114,119,118,120,128,126,124,120,110,117,120,122,123,111,112,128,138,126,119,119,122,120,122,120,116,118,121,118,112,122,121,120,128,129,122
126,126,121,121,119,121,121,122,119,121,128,125,122,131,135,122,122,127,119,127,125,119,103,120,118,103,118,113,117,115,117,119,123,123,123,127,124,140,133,121,121,120,121,123,122,113,117,118,118,122,122,122,111,98,120,118,126,124,119,127,135,141,121,116,129,123,120,117,122,122,133,126,113,119,120,119,114,108,108,115,116,119,121,123,126,155,140,117,122,120,126,125,122,108,121,121,122,124,119,124,121,119,122,121,118,121,106,109,114,104,107,115,119,120,128,126,123,131,130,122,120,117,121,124,122,120,122,119
121,129,118,122,120,119,118,121,118,123,124,124,120,121,127,120,119,117,119,116,120,129,124,122,120,115,120,123,123,122,128,120,120,120,123,121,112,103,107,112,116,126,122,125,124,121,132,119,117,111,117,119,119,114,117,119,121,110,121,122,119,107,109,118,120,122,120,119,119,120,126,120,119,122,123,122,116,123,115,118,120,119,121,124,128,137,134,120,113,121,123,124,119,119,119,118,128,120,125,121,118,118,125,122,122,130,120,124,126,127,138,125,112,124,121,123,117,107,97,113,112,115,117,116,116,114,118,117
124,123,122,125,127,126,126,122,122,121,115,118,119,121,116,122,127,122,120,118,122,127,128,124,118,119,126,125,118,104,113,120,134,107,126,128,131,147,133,120,123,115,121,118,116,108,111,124,114,121,114,118,116,116,117,115,119,122,127,125,123,126,124,114,120,130,116,119,121,121,118,122,118,123,116,119,121,124,127,122,124,122,119,119,117,115,118,123,119,121,123,122,122,121,126,121,124,120,121,123,121,122,118,120,120,124,129,122,122,122,123,123,123,126,122,126,123,120,119,121,118,113,106,112,119,121,123,121
123,122,125,125,125,123,122,123,120,127,123,122,122,122,124,122,120,118,121,123,120,121,121,119,119,115,120,120,121,117,118,119,123,123,123,128,125,126,126,122,127,126,119,123,124,123,126,121,118,117,115,117,120,118,111,115,120,114,121,124,123,135,134,121,114,119,116,118,117,104,98,118,123,128,122,126,127,133,135,126,121,125,121,122,123,119,106,122,115,119,122,125,121,119,132,122,128,132,125,127,126,130,121,126,121,118,103,110,118,114,118,119,119,121,123,123,119,122,125,121,117,115,123,124,120,114,123,118
124,128,131,125,122,124,122,123,124,131,122,122,123,125,123,119,111,117,117,122,120,117,112,119,120,119,121,120,118,113,117,116,122,123,122,123,122,127,125,119,123,128,124,123,121,124,125,122,119,116,110,116,120,122,116,118,131,123,126,125,126,127,118,130,119,118,122,122,121,124,119,118,116,117,121,119,119,132,133,120,127,119,120,124,123,115,118,126,109,110,119,117,114,106,102,104,119,119,121,124,125,131,130,122,120,119,120,117,119,121,123,121,127,128,129,127,121,120,121,119,118,123,124,123,122,123,117,120
120,122,120,121,121,121,123,120,122,131,124,124,121,122,124,122,117,133,127,132,128,123,116,121,121,114,122,119,118,116,119,120,123,120,123,122,124,125,123,122,123,119,122,123,121,121,120,120,116,128,126,123,121,122,123,121,118,107,126,124,122,119,132,122,123,115,121,121,120,117,101,118,115,118,119,118,116,114,117,114,121,116,121,124,125,120,119,121,119,120,123,124,124,140,147,123,123,119,120,118,118,113,112,123,115,126,119,118,117,117,122,115,118,121,122,122,119,118,114,121,120,122,120,124,120,124,126,121
120,128,119,119,121,124,122,119,122,125,117,120,122,123,123,121,120,127,131,135,126,135,131,123,125,116,82,86,112,117,119,122,122,119,127,126,122,122,120,121,118,128,132,133,121,118,125,116,114,117,99,109,120,118,113,119,122,127,131,128,122,123,126,123,121,119,124,126,125,124,122,119,122,126,124,126,124,119,116,122,124,117,120,121,122,130,126,121,116,117,119,119,117,103,105,115,121,118,120,122,123,134,133,123,123,121,121,122,124,133,140,122,113,118,119,121,116,103,105,117,122,120,121,125,129,130,124,121
124,126,123,126,123,123,125,121,126,122,122,122,121,122,124,123,113,122,111,113,119,120,121,118,120,123,132,129,123,119,121,121,122,127,119,121,122,122,122,122,118,122,122,123,122,119,119,118,121,123,124,119,119,122,121,119,122,121,122,123,122,120,113,119,113,116,115,116,119,120,123,119,122,127,124,126,123,122,117,122,116,119,119,120,120,118,127,117,120,119,121,123,123,118,113,119,127,123,121,122,122,125,125,120,122,124,120,123,125,141,133,122,120,121,121,123,119,120,122,124,119,120,123,122,120,110,114,120
117,124,120,120,119,131,125,117,118,126,123,124,124,120,115,123,123,117,121,122,121,132,132,120,119,123,125,121,121,119,119,122,124,131,117,120,120,119,116,120,121,122,128,132,132,130,129,121,117,118,106,108,116,117,117,119,126,122,126,123,121,120,121,121,122,122,122,123,123,123,122,121,125,127,121,122,121,126,125,119,114,114,119,118,118,119,121,118,121,121,122,124,123,121,119,120,125,120,112,116,117,119,123,123,120,123,123,122,122,122,118,120,125,122,123,124,124,128,129,124,119,114,119,121,120,124,125,119
122,123,124,124,120,117,119,121,121,121,117,120,125,124,121,121,120,126,122,123,124,123,121,122,119,120,121,123,122,114,117,119,120,121,122,122,122,131,128,121,123,122,119,124,124,120,119,119,121,118,113,119,122,123,124,120,120,122,122,114,117,118,120,119,120,124,122,125,122,119,120,120,122,124,123,123,121,123,126,121,123,121,124,123,121,121,122,121,123,125,121,120,122,125,123,122,119,118,117,119,118,117,116,118,125,124,122,123,121,117,121,122,117,118,118,122,123,123,118,120,125,125,121,125,121,125,127,121
119,117,118,118,119,118,119,122,117,123,120,120,117,115,119,117,115,119,116,120,120,122,119,117,116,124,125,124,123,126,124,121,129,127,119,121,124,127,126,123,119,120,122,124,119,106,106,118,119,118,117,119,119,127,130,120,114,114,124,126,123,121,121,120,122,119,119,116,118,126,130,121,114,117,112,118,117,115,113,115,117,119,115,118,120,122,125,119,117,127,127,124,121,118,114,121,124,119,119,121,121,122,122,121,121,121,119,121,119,117,118,119,120,121,122,121,121,123,122,120,122,123,119,119,119,120,121,120
121,118,116,117,119,114,116,120,122,123,123,123,120,126,131,122,120,121,123,123,123,121,120,121,120,118,118,121,120,116,118,119,119,122,121,116,112,115,124,122,122,122,119,122,122,112,104,117,120,121,118,124,124,133,140,123,119,116,120,122,123,109,116,122,120,123,120,120,121,125,125,120,122,123,121,121,121,120,120,121,121,119,121,122,122,124,121,119,118,130,126,121,120,119,120,121,120,121,124,123,122,122,123,120,127,122,121,124,124,119,117,122,119,121,120,123,123,123,124,122,121,123,121,120,120,122,124,120
124,123,121,123,122,118,119,119,121,120,123,124,122,122,122,121,119,126,122,116,119,120,121,120,117,117,119,125,120,119,118,118,122,123,131,125,126,124,126,122,119,124,114,118,119,124,123,120,123,117,120,122,120,116,116,121,117,122,127,125,124,127,122,120,125,124,121,122,121,111,118,122,121,123,121,121,123,140,134,122,122,121,121,123,123,124,129,120,118,119,120,119,119,119,119,119,119,116,120,122,120,119,117,119,117,122,121,119,117,114,117,119,128,124,120,122,122,129,128,123,116,121,123,120,119,112,116,115
124,119,120,123,122,124,123,123,122,125,124,121,121,119,120,120,117,118,123,124,122,126,125,120,122,122,122,122,121,127,124,121,118,120,123,120,119,119,121,121,128,122,128,130,121,120,127,122,113,116,107,109,117,119,110,114,119,123,127,127,125,122,119,124,119,121,123,121,120,121,123,121,122,123,120,122,122,123,125,122,118,125,125,124,123,119,119,119,122,116,121,121,119,123,121,119,123,126,119,119,118,120,122,123,116,122,120,122,122,121,120,120,121,117,121,120,120,120,121,120,118,120,117,121,119,120,122,120
119,120,122,123,123,120,121,122,119,125,122,121,121,121,121,119,120,114,119,123,121,124,122,120,119,118,122,120,122,122,123,120,121,125,119,123,123,120,118,120,121,120,122,123,124,137,131,122,116,126,122,122,121,116,114,119,120,115,127,124,120,124,125,121,123,121,111,117,123,118,110,117,120,122,123,121,120,122,126,121,125,126,125,124,122,121,121,123,115,121,120,120,122,137,133,118,129,122,122,128,128,121,122,122,117,121,122,122,120,116,117,118,124,122,122,123,123,125,126,120,120,123,122,125,122,120,122,121
120,117,110,113,120,121,117,119,126,122,123,122,120,121,122,122,117,123,125,125,123,123,122,120,118,118,120,123,121,119,120,119,122,126,123,122,123,126,123,121,123,119,119,121,120,119,119,119,120,124,121,122,121,125,126,120,121,119,119,119,119,113,112,121,119,116,122,123,122,127,124,117,125,126,124,122,121,121,122,121,117,121,120,121,120,121,120,121,119,121,121,121,120,119,120,120,123,123,123,124,126,124,121,120,120,122,123,120,117,117,120,119,114,123,118,122,122,120,121,116,124,116,123,125,124,123,121,121
117,126,122,123,122,122,123,121,122,122,119,122,123,121,119,119,120,121,121,116,118,119,121,121,120,122,124,125,122,119,120,120,120,119,119,125,125,130,127,120,119,123,123,121,119,119,120,121,119,118,113,119,119,118,119,119,120,119,124,126,124,123,122,120,120,123,121,122,121,120,120,121,119,119,123,123,122,121,120,119,119,121,120,122,123,122,120,121,122,121,121,126,124,123,122,120,116,123,121,116,116,118,119,118,118,119,119,121,121,123,121,120,117,123,121,121,119,120,122,120,121,118,119,120,119,119,119,120
120,124,120,120,118,120,123,120,120,123,121,120,120,119,119,119,118,124,121,123,123,123,122,121,116,118,121,123,122,121,123,122,121,120,122,120,121,120,119,118,120,124,118,119,120,120,120,120,122,124,120,124,122,121,122,119,119,118,119,122,122,117,117,119,125,120,120,122,123,128,125,121,115,122,127,124,123,121,119,119,121,125,120,120,118,119,120,120,118,120,123,124,122,121,120,121,117,123,123,125,121,121,120,119,119,121,119,113,118,121,121,120,120,122,121,124,121,118,119,120,120,120,127,127,125,129,129,121
121,118,117,119,120,117,118,119,127,123,123,123,121,121,121,122,118,119,123,122,120,120,121,119,121,120,120,124,122,118,118,119,121,124,121,119,117,124,126,120,124,121,121,124,121,124,122,119,124,119,119,120,119,116,119,121,120,121,119,121,122,127,124,121,122,124,123,122,120,120,120,119,122,121,122,123,121,119,119,122,117,125,119,119,119,126,125,119,122,118,120,122,122,122,121,120,119,126,121,123,122,122,121,121,116,123,120,123,122,122,121,119,118,119,123,122,121,120,121,120,120,118,117,123,122,123,121,119
119,130,122,120,121,120,122,122,124,123,122,124,122,120,120,120,119,120,121,119,119,121,121,120,115,120,122,124,121,118,120,119,124,120,120,121,122,126,120,119,124,121,118,120,117,115,120,121,120,122,121,124,124,120,121,119,117,119,121,121,121,120,121,119,120,123,121,122,121,124,125,120,117,125,121,124,121,116,119,121,118,117,121,122,126,123,118,118,119,120,122,123,120,120,121,120,122,120,119,119,121,122,122,121,117,122,119,119,119,120,121,122,119,123,125,125,122,120,120,119,123,118,121,123,124,124,121,120
119,124,129,127,123,121,121,121,123,123,113,116,118,119,120,120,124,121,122,122,121,121,120,120,119,121,124,123,122,121,121,120,122,117,121,123,122,121,120,119,118,121,121,120,119,119,120,120,122,120,123,125,125,125,123,121,120,125,122,121,121,122,122,118,122,119,118,121,121,118,118,121,120,121,124,124,122,121,124,120,117,122,120,121,121,120,120,121,117,119,120,120,119,121,122,120,123,128,122,121,120,118,117,118,119,125,123,123,122,123,123,120,119,119,122,123,122,118,118,119,123,119,119,123,121,121,121,120
121,120,123,120,120,122,122,120,120,125,117,115,117,118,120,121,122,119,126,127,123,122,123,121,124,120,123,122,122,121,119,121,119,121,119,122,122,123,121,118,119,123,119,121,122,122,123,121,125,125,125,125,120,119,120,120,123,122,119,119,122,123,122,123,118,122,122,121,121,120,120,119,123,122,123,123,121,121,121,121,111,122,119,121,121,120,120,117,115,119,123,123,122,120,121,120,119,122,121,122,122,126,124,119,120,122,122,123,122,122,124,121,116,118,111,112,118,119,119,119,122,121,122,124,121,120,119,120
125,121,120,121,119,116,118,120,124,122,122,124,122,127,128,122,119,122,122,122,121,119,120,121,118,121,121,122,119,118,124,119,124,121,123,125,125,126,121,121,122,121,118,118,119,118,119,119,120,120,114,119,118,120,126,121,118,118,122,120,121,122,121,119,127,120,124,126,121,120,120,120,120,123,123,122,121,121,122,122,115,120,111,114,118,119,119,118,118,123,123,122,121,122,122,120,118,121,122,123,123,123,122,120,125,124,122,123,122,121,119,122,119,119,117,119,119,122,122,119,119,120,121,122,122,121,120,119
121,121,122,123,122,122,122,120,121,123,120,121,121,121,121,120,122,122,119,120,121,120,120,119,124,120,120,122,119,117,118,118,119,119,119,120,121,123,122,123,126,121,120,121,119,117,120,119,120,120,119,118,118,121,122,122,117,116,121,124,125,129,123,118,119,124,120,118,117,108,111,119,124,125,121,125,125,135,134,121,122,119,120,119,121,121,118,120,121,117,121,121,120,120,122,120,117,122,121,122,120,119,122,121,120,121,120,118,117,120,118,120,123,122,119,121,122,126,123,120,120,121,124,125,120,118,120,120
118,123,124,121,119,118,119,120,121,120,114,119,119,119,121,120,118,124,119,122,123,121,120,119,123,118,127,127,122,119,120,121,118,125,123,119,120,122,123,120,122,122,119,121,119,119,121,121,119,123,121,123,121,117,117,120,119,121,124,122,121,126,126,120,121,122,119,121,120,119,119,119,120,122,121,123,122,122,121,121,122,120,116,121,124,119,120,122,117,122,127,125,125,130,130,120,121,123,119,122,118,111,111,118,120,120,118,120,121,122,121,119,118,120,122,122,121,122,124,121,118,118,119,118,116,119,120,119
125,124,124,129,128,119,119,122,118,125,117,119,119,114,121,121,117,120,120,121,120,123,122,117,122,121,124,123,122,120,124,119,120,119,120,118,114,116,120,120,122,129,126,129,130,125,120,121,118,121,114,114,118,118,121,119,119,122,120,122,120,120,125,121,123,117,123,123,123,128,124,121,120,126,123,125,122,120,120,120,122,119,123,123,121,120,120,119,116,120,109,111,119,119,121,121,122,122,122,123,121,123,121,120,124,123,122,124,122,123,124,122,120,121,122,122,120,118,121,121,118,116,121,121,119,119,121,119
121,120,122,125,123,121,117,121,121,124,119,123,123,121,122,121,119,120,120,120,117,112,123,119,118,120,120,122,123,127,120,122,124,119,120,121,122,132,133,123,120,125,120,125,125,118,114,118,117,120,120,122,119,121,122,119,121,120,121,118,118,114,116,119,120,123,120,121,120,121,122,121,123,122,117,120,121,121,122,119,116,122,128,126,124,122,121,119,119,120,117,120,120,120,120,121,119,122,115,119,120,119,120,122,122,121,124,125,122,123,122,119,124,122,120,121,121,120,120,120,117,125,119,117,119,120,121,119
123,122,123,123,121,120,121,121,121,120,121,121,119,118,119,119,118,121,121,124,124,125,124,119,121,119,117,118,118,112,117,120,118,115,120,120,121,129,127,120,125,126,122,125,123,122,119,121,119,121,121,120,121,120,124,119,120,117,118,120,120,124,122,120,122,125,125,125,123,114,118,121,128,121,122,123,123,124,122,122,121,120,118,121,120,118,119,119,116,118,123,123,120,120,123,120,126,124,114,114,119,121,121,122,122,122,120,123,122,121,122,121,121,122,129,124,120,120,120,120,119,121,125,125,122,119,119,119
121,122,115,116,118,119,120,121,123,120,122,125,121,119,119,119,123,122,121,125,121,121,122,123,120,121,122,123,122,122,121,118,122,122,122,123,121,120,121,122,120,121,120,119,117,111,112,120,118,119,118,123,121,130,130,118,119,123,122,122,121,117,117,119,122,121,122,124,123,128,125,120,121,122,119,119,118,114,117,122,119,118,121,122,121,126,128,121,127,125,123,125,124,120,116,120,120,120,120,119,119,122,123,118,125,124,128,122,119,119,122,121,119,122,115,120,121,121,120,121,119,120,125,123,120,122,122,120
121,121,124,122,122,120,121,120,125,119,118,117,119,121,122,121,121,125,115,120,122,119,120,120,120,121,123,123,122,122,122,120,123,124,123,124,121,119,122,121,124,122,124,122,120,121,119,122,121,120,116,119,120,122,121,119,117,121,123,123,122,123,124,120,124,120,121,122,121,119,124,121,117,123,122,122,123,126,117,121,118,122,120,122,121,121,123,119,123,120,121,121,122,122,120,122,115,118,121,121,118,110,112,116,127,123,121,123,123,123,123,121,120,120,119,121,118,120,124,120,119,119,121,121,121,119,120,120
123,120,122,123,121,122,120,119,122,123,119,116,118,117,120,123,118,120,125,126,123,121,119,119,120,116,106,115,121,124,125,119,119,123,127,122,122,121,121,121,124,126,127,125,122,120,121,121,120,123,121,122,121,124,122,119,119,121,119,120,121,120,120,121,121,119,122,124,122,121,120,119,118,122,120,122,121,121,122,121,119,120,121,121,122,120,120,121,120,122,119,122,122,118,121,120,117,121,121,123,122,120,118,116,124,122,121,121,122,121,120,121,121,123,122,123,122,124,119,123,120,117,120,122,122,117,118,114
123,123,121,123,121,131,127,122,120,124,122,120,118,109,113,120,121,122,120,124,125,137,131,121,121,125,122,121,120,118,120,119,119,119,120,121,121,119,118,121,122,124,122,123,122,124,122,120,121,123,121,123,121,119,119,119,118,116,119,120,120,120,120,119,121,125,122,123,121,120,121,120,120,123,121,122,122,122,121,120,119,119,120,120,119,120,120,119,123,119,121,123,122,121,121,120,124,123,120,122,120,120,121,120,123,122,121,123,124,123,123,122,120,122,121,122,120,120,121,120,120,118,121,120,121,122,122,121
118,121,120,121,121,120,121,121,119,118,121,122,122,121,121,119,119,120,122,123,121,117,118,122,125,117,120,120,120,129,129,118,119,121,121,120,121,118,119,119,120,126,120,122,121,119,117,122,121,119,120,122,121,121,122,120,120,119,121,121,121,122,122,121,119,123,121,122,121,121,122,120,126,123,121,122,120,121,121,120,119,120,122,122,121,120,121,120,121,117,122,124,123,122,122,121,120,124,120,117,119,120,121,119,123,124,121,125,122,121,122,122,120,124,122,120,119,119,119,120,117,125,121,124,123,122,124,120
121,125,121,122,122,121,121,121,121,123,121,121,121,121,120,120,120,122,121,121,120,120,122,120,120,120,121,122,123,122,122,120,123,125,121,122,121,121,122,124,120,119,120,122,121,120,119,116,118,121,121,120,122,121,121,119,119,117,120,122,121,121,122,122,123,118,119,122,123,119,117,117,123,120,120,121,121,121,120,121,120,123,121,122,121,119,126,118,120,122,121,123,122,121,121,119,122,125,123,122,122,121,120,119,119,121,120,124,123,122,121,120,118,119,119,116,117,121,123,122,121,122,121,125,124,121,119,116
117,115,120,123,123,122,122,121,121,123,121,122,118,119,121,119,120,118,121,121,123,121,122,120,119,119,121,123,122,121,121,120,119,118,120,122,122,122,123,121,121,123,119,121,120,121,120,120,119,124,120,121,119,120,119,120,119,112,118,121,121,120,121,120,120,123,120,122,122,121,120,119,122,120,119,121,121,121,121,116,120,123,124,122,121,122,125,130,117,117,120,122,121,122,122,119,120,123,123,125,125,122,120,118,127,120,120,118,117,119,120,119,120,121,119,123,122,121,121,121,120,120,122,122,122,122,122,121
122,118,120,121,118,119,121,121,121,123,126,123,122,121,120,120,122,126,122,123,121,121,123,121,121,124,117,118,118,120,119,119,119,119,120,123,123,122,123,121,119,127,121,122,122,122,121,120,120,120,120,121,120,121,122,120,120,119,119,121,121,122,120,121,121,116,121,120,119,119,119,119,120,132,122,122,123,122,121,120,121,119,122,122,122,121,121,120,122,121,120,123,122,121,121,120,122,120,122,122,121,120,121,120,121,120,119,121,121,121,121,121,118,124,122,123,122,122,121,120,119,122,121,122,121,122,121,120
120,118,120,121,122,121,120,119,120,120,121,121,121,121,122,120,118,124,121,123,122,122,122,121,122,120,119,121,121,121,120,119,124,123,121,123,121,120,121,119,120,123,122,123,120,120,122,120,120,119,119,121,122,121,120,120,124,121,122,123,122,122,121,120,119,124,120,121,120,121,121,119,122,123,120,123,123,122,123,122,120,119,120,118,119,121,121,120,121,122,122,124,124,122,121,120,122,122,122,120,119,118,121,120,119,121,119,121,121,121,122,120,118,123,121,122,123,122,122,120,119,123,122,123,121,121,122,121
120,121,121,118,120,121,122,121,121,122,121,123,121,121,121,121,121,122,120,123,123,122,122,120,114,121,121,119,120,121,122,121,120,119,120,124,122,120,121,120,122,122,121,120,120,121,122,121,121,121,121,123,122,120,121,120,118,122,121,123,121,121,122,120,123,121,120,121,121,121,121,119,123,123,122,122,120,121,121,121,119,121,121,120,122,121,121,121,117,121,120,122,120,121,122,120,122,120,121,122,123,121,122,120,121,124,121,120,120,121,121,121,120,121,120,121,121,122,121,120,121,120,121,123,123,122,122,119
120,123,121,123,122,122,122,121,120,119,121,121,123,122,122,121,120,118,121,121,121,121,122,120,120,123,119,121,120,121,121,120,117,122,122,124,122,122,122,121,121,121,121,121,122,122,122,120,120,121,121,121,121,121,121,120,120,120,121,122,121,121,121,120,122,122,121,122,121,121,121,121,123,122,120,118,118,121,121,120,120,123,121,122,122,121,121,121,120,122,121,123,121,120,121,119,119,121,120,122,122,121,121,121,123,122,120,118,118,121,121,120,120,119,121,125,123,121,121,120,121,123,121,122,121,121,121,120
122,120,121,122,122,122,122,120,119,125,121,122,121,121,122,121,125,121,121,122,121,120,121,121,119,124,121,122,122,121,120,119,121,124,121,122,121,121,122,120,120,120,120,121,121,122,122,120,125,119,121,122,121,120,120,120,118,122,121,123,123,122,122,120,116,124,120,120,119,120,121,120,122,123,119,121,120,121,122,120,118,120,121,123,123,122,122,121,118,119,121,125,123,122,121,120,121,118,120,119,119,121,122,121,121,123,121,122,120,120,121,120,117,120,122,123,122,122,122,121,120,121,121,122,122,120,121,119
121,122,122,122,121,121,120,120,122,121,121,122,122,121,121,120,117,120,121,122,122,121,122,121,125,121,121,121,121,121,121,120,121,122,120,123,121,120,121,120,120,121,121,122,122,121,121,120,120,120,120,121,120,121,122,120,120,123,121,122,122,122,122,121,121,120,121,122,120,120,121,120,125,122,120,122,121,122,122,121,121,121,120,121,121,121,122,121,121,121,121,122,122,122,122,121,119,119,120,123,122,122,121,121,118,120,121,121,120,121,121,120,119,122,120,120,119,121,120,120,118,119,121,125,123,120,121,120
119,120,121,120,122,122,122,120,121,125,121,123,121,121,121,120,124,121,121,122,122,121,121,119,125,118,122,122,120,121,121,120,125,121,121,122,122,121,121,121,129,121,121,119,119,121,121,121,127,118,121,121,121,121,121,120,120,122,121,123,122,121,122,120,117,123,122,123,121,122,122,121,116,120,121,121,121,121,122,120,115,122,122,122,120,121,121,121,115,119,120,121,121,121,121,120,118,121,120,122,121,121,121,120,123,120,121,122,122,120,121,120,117,121,122,121,120,121,121,121,116,122,121,119,119,121,121,120
118,121,119,126,123,121,121,120,121,121,122,120,121,121,122,120,115,120,121,122,121,121,121,120,120,120,118,120,123,121,121,120,120,122,122,122,119,121,121,120,126,121,121,121,121,121,121,120,120,121,120,123,123,122,122,120,120,122,123,121,121,121,122,121,120,119,114,117,119,120,121,120,119,120,124,125,122,121,121,121,124,123,121,123,121,121,122,121,120,120,120,121,121,121,122,120,121,123,124,120,121,120,121,120,123,123,120,123,121,121,122,122,121,122,120,120,121,122,122,121,120,120,120,122,121,121,122,120
118,122,121,121,121,121,121,121,123,122,121,121,120,121,121,120,122,122,122,122,120,120,121,120,119,122,123,123,121,121,122,121,122,121,119,119,120,120,121,120,122,122,123,123,121,121,121,121,122,121,121,122,121,121,121,120,122,121,121,123,122,121,122,120,122,123,121,121,121,121,120,120,121,121,122,123,121,120,121,120,121,122,123,122,121,122,121,119,122,118,118,117,120,121,122,120,120,122,121,123,123,122,121,120,121,123,120,119,120,121,122,122,122,121,122,122,119,120,121,120,117,121,122,124,122,121,121,120
119,119,121,122,120,120,121,120,120,122,121,120,123,121,121,120,120,121,121,123,122,121,120,120,118,121,122,122,122,122,122,121,123,121,122,123,121,121,121,120,122,120,116,118,121,122,121,120,119,121,121,120,121,121,120,120,119,122,123,122,120,120,120,119,124,122,121,123,122,121,121,120,119,123,121,123,122,121,121,120,121,122,121,123,121,120,121,121,120,121,120,122,122,121,121,119,121,121,123,122,120,122,121,120,123,120,118,120,120,121,121,121,124,122,121,122,122,121,121,121,119,122,122,123,121,120,121,120
119,122,122,122,122,122,122,121,122,122,122,121,120,121,121,121,122,121,121,124,122,121,121,121,119,122,120,118,118,120,121,121,122,120,121,122,122,120,121,120,124,123,122,123,121,121,121,121,119,120,121,120,121,121,121,121,116,121,120,124,121,120,121,121,122,120,119,120,121,121,122,121,123,122,121,122,122,121,121,121,122,120,121,121,119,121,121,120,121,122,121,123,123,121,121,121,116,121,121,122,122,122,121,120,121,122,122,120,121,122,122,120,120,120,121,122,122,121,121,120,119,121,121,122,121,121,122,119
120,121,120,121,121,121,121,121,124,121,120,123,122,121,120,120,125,122,123,122,120,121,121,121,118,121,119,119,119,120,121,120,123,120,121,122,122,122,122,120,118,122,122,122,121,122,122,121,117,123,124,124,122,121,122,121,122,121,120,122,121,121,121,120,120,121,124,120,120,121,121,120,120,121,119,124,123,122,121,120,118,120,122,121,121,121,122,120,122,120,122,122,120,121,121,121,120,120,120,122,122,121,122,120,123,122,123,123,122,121,121,121,118,120,119,120,121,121,121,121,122,122,121,123,122,121,122,121
120,121,121,121,120,121,122,120,120,123,121,122,121,121,121,120,118,122,122,122,121,121,121,121,123,120,121,122,121,122,122,122,119,119,121,123,122,122,121,120,120,122,121,122,121,121,122,120,117,123,121,120,118,121,121,120,119,122,119,119,122,121,122,120,122,121,119,120,121,121,122,120,120,121,122,125,123,121,121,120,119,122,123,123,121,121,121,120,119,122,120,122,121,121,122,120,119,119,121,121,120,121,121,120,122,121,121,122,122,121,122,120,122,120,119,122,120,121,121,121,120,123,124,122,120,120,121,120
118,120,116,117,120,121,121,120,122,121,120,122,121,122,122,121,120,120,122,123,121,121,121,120,121,120,120,121,121,121,121,120,121,122,121,122,122,121,121,121,122,123,121,122,120,120,121,121,120,120,122,123,121,120,121,120,121,122,121,123,123,122,121,119,120,121,122,119,119,121,121,120,122,120,119,124,122,121,121,120,119,122,123,119,121,121,122,120,120,122,122,124,121,121,121,120,119,123,122,123,121,121,121,121,123,120,119,119,119,120,121,121,119,121,120,121,121,121,122,120,120,121,121,123,122,121,121,120
121,120,121,123,122,121,121,120,120,120,120,119,121,121,121,120,122,121,121,120,120,121,122,120,120,122,121,123,123,121,121,119,120,120,121,121,122,121,122,121,121,124,121,122,120,121,121,120,122,121,118,120,121,121,122,120,121,121,121,122,122,121,121,120,119,122,120,123,122,121,121,119,123,121,121,120,120,120,121,120,119,120,121,124,122,121,122,120,121,122,122,123,121,120,121,120,121,119,120,119,120,120,120,119,121,123,121,123,122,122,122,121,123,123,123,123,121,121,121,120,119,120,121,122,121,120,121,120
119,122,121,122,121,121,121,121,120,121,121,121,121,121,122,121,120,124,122,122,121,121,121,120,123,121,122,122,121,121,121,120,118,122,120,121,122,121,121,120,120,122,120,122,122,121,121,120,118,123,121,122,121,122,122,121,123,121,121,123,122,121,120,120,120,121,121,121,120,121,122,120,119,120,122,124,122,120,120,119,121,122,120,121,122,120,121,121,120,121,122,121,120,121,121,120,123,121,121,121,121,121,121,121,123,124,122,124,122,120,121,121,121,121,120,120,119,121,121,119,120,120,120,120,121,121,121,119
120,121,120,122,122,121,122,121,122,122,123,124,121,121,121,121,119,121,119,121,121,121,121,119,120,122,123,123,122,121,121,121,122,120,119,121,121,121,122,121,123,122,120,122,122,122,121,120,122,121,122,122,120,121,121,120,117,122,121,123,122,121,122,121,120,122,121,122,120,120,121,120,121,121,120,121,121,121,122,120,118,122,123,123,122,122,121,120,120,123,120,122,122,121,122,120,122,120,121,122,121,121,120,120,120,121,122,122,121,121,122,121,120,120,121,122,122,121,122,120,120,121,121,120,119,120,121,120
124,121,120,121,121,121,121,120,119,123,120,124,121,121,121,121,119,120,120,117,119,120,121,119,119,121,122,124,122,121,121,121,121,121,121,122,122,121,121,120,120,122,121,123,121,121,121,120,121,123,120,121,121,121,121,120,118,120,121,119,120,121,121,120,119,120,117,118,120,121,122,121,122,122,123,124,121,121,121,120,119,120,121,122,121,121,121,121,119,122,120,122,121,120,122,121,121,120,121,122,121,121,121,121,124,120,121,122,120,121,121,121,122,120,121,122,121,121,122,120,118,121,121,123,121,120,121,120
119,121,120,122,121,121,121,120,122,121,120,120,121,121,121,121,119,122,121,121,120,121,121,121,122,120,121,122,122,121,121,121,122,121,121,120,119,121,121,120,117,121,121,124,123,122,121,120,123,120,121,124,121,121,121,119,120,121,120,116,118,121,121,120,121,122,120,124,122,121,121,121,119,124,122,122,123,121,121,120,121,120,119,121,121,121,121,120,118,119,121,122,122,121,122,119,117,121,121,121,120,121,122,120,124,122,121,123,122,121,121,120,123,121,122,122,121,121,121,121,120,121,122,122,121,121,121,119
118,121,121,122,121,121,121,120,121,122,122,122,121,121,121,121,125,123,120,123,122,121,121,121,122,122,122,121,121,120,121,120,120,120,122,122,121,121,121,121,120,121,121,123,121,120,121,120,119,120,121,121,122,121,121,119,119,120,121,122,122,122,121,119,120,119,120,121,120,121,122,120,123,122,120,122,122,121,121,121,120,123,122,122,121,120,121,121,124,120,120,122,122,121,120,119,120,122,122,123,122,121,121,120,119,121,120,122,121,121,121,119,122,119,119,120,119,120,122,122,118,121,122,122,122,122,122,120
122,122,119,122,122,121,121,120,120,123,121,121,121,121,121,121,118,120,122,123,122,122,121,119,121,123,123,123,121,121,122,121,121,120,119,121,121,121,121,120,120,124,121,122,121,120,121,120,120,122,122,122,121,120,121,120,119,119,119,121,120,121,120,119,125,121,122,123,122,121,122,120,122,122,122,123,121,121,120,121,121,121,122,123,122,121,121,120,118,122,121,120,119,120,121,120,125,122,122,122,121,120,121,120,121,121,121,124,122,121,121,120,120,120,121,120,121,122,121,120,119,118,115,116,119,120,122,120
119,123,123,124,122,121,121,121,120,122,122,124,122,121,121,120,121,122,121,122,122,122,122,120,117,121,122,122,121,120,121,120,120,121,122,123,120,121,121,120,122,122,118,121,122,121,122,120,121,122,124,123,122,122,121,120,119,120,119,120,121,121,122,120,122,122,121,121,121,121,121,121,122,122,121,123,122,121,121,121,119,120,122,123,122,120,121,120,119,122,121,118,120,121,121,120,120,121,120,123,121,121,121,121,121,122,122,122,122,122,122,120,118,119,120,122,121,121,122,121,119,120,120,121,121,121,121,121
122,120,122,121,120,121,121,121,119,121,120,122,122,122,121,121,121,122,120,122,121,120,121,121,120,123,122,122,120,121,121,120,120,122,121,120,121,122,121,119,120,121,121,124,122,121,122,120,121,120,119,122,122,121,121,120,120,123,120,120,120,121,122,121,119,120,119,121,122,121,122,121,122,120,120,123,122,122,121,120,123,121,121,119,119,120,121,121,120,120,119,122,121,121,121,121,121,123,121,121,121,121,121,120,121,121,122,123,121,120,121,120,119,121,121,122,121,120,121,121,122,123,119,121,121,121,120,121
120,121,123,121,120,121,121,120,121,121,122,123,122,121,121,120,121,122,121,122,122,121,121,121,120,119,119,120,120,121,122,120,120,122,121,122,121,121,122,120,121,121,120,122,121,121,122,121,122,120,118,122,121,121,122,122,121,121,121,120,120,120,121,120,119,122,120,120,121,122,122,120,119,122,122,123,122,121,121,120,120,122,121,124,121,121,122,120,119,121,120,119,121,121,122,121,119,122,121,124,121,121,121,121,118,121,122,121,121,121,121,120,123,122,122,123,122,121,121,120,117,122,121,122,121,122,121,120
120,121,120,122,121,121,122,120,122,121,121,122,122,122,121,119,120,121,121,121,121,121,122,120,122,120,120,122,122,120,121,120,119,122,122,121,119,120,121,121,119,121,119,120,121,121,120,120,120,122,122,123,122,122,121,120,119,121,121,123,121,121,121,120,119,120,119,120,121,121,122,120,122,124,122,121,120,120,121,120,118,121,121,122,121,121,121,120,120,121,120,121,121,121,121,120,119,121,122,125,123,121,121,120,121,122,121,119,120,121,120,120,119,122,120,123,122,122,121,119,121,121,121,122,119,120,121,120
119,120,120,121,122,122,121,120,121,122,122,123,122,121,121,121,122,123,118,117,119,121,121,120,119,122,124,124,121,121,120,121,121,121,120,121,121,120,121,120,122,121,121,122,121,122,121,120,121,123,119,122,121,122,122,120,119,120,122,123,122,122,122,120,118,120,121,122,122,122,121,119,122,122,118,121,122,122,122,122,119,120,121,121,120,121,121,120,121,121,121,122,121,122,122,120,121,121,122,124,122,121,121,120,120,123,122,124,122,120,121,121,121,121,121,119,119,120,120,120,122,121,121,122,122,121,121,120
119,122,120,122,121,121,121,121,119,120,121,123,123,121,122,120,124,121,120,120,119,121,121,121,124,122,121,122,121,121,122,121,118,121,121,122,121,121,121,120,122,122,119,120,121,121,122,120,122,122,121,121,120,121,121,120,119,122,120,120,120,120,121,120,121,122,123,122,121,120,121,120,121,121,120,121,121,121,121,120,116,122,122,122,122,122,121,121,122,122,121,123,121,120,121,119,119,121,121,122,121,121,122,120,120,119,122,121,121,121,122,121,118,124,120,123,122,122,122,121,119,121,121,119,121,121,121,119
120,121,121,123,121,121,120,120,120,121,120,120,120,121,121,121,121,122,120,122,121,121,121,121,123,121,121,120,120,121,121,120,118,122,121,121,121,121,121,120,121,122,121,124,122,121,122,120,120,121,121,122,122,121,121,119,121,121,118,118,120,121,121,120,122,122,122,121,121,120,121,121,121,121,120,121,120,121,121,121,119,122,121,122,122,121,121,120,120,122,121,120,121,121,121,120,123,121,120,121,121,121,121,121,121,121,121,122,121,121,121,121,123,122,121,121,120,121,121,120,118,121,122,123,122,122,122,121
119,121,120,123,121,120,121,120,121,122,122,122,121,120,120,121,122,122,120,121,121,121,122,120,119,120,121,122,121,121,122,120,121,119,121,122,121,121,121,120,122,123,122,123,122,121,121,121,121,121,119,115,118,121,122,121,119,119,120,122,121,121,121,120,119,120,120,124,123,122,121,120,120,122,120,119,119,121,121,120,119,121,121,123,122,122,122,120,121,122,121,122,122,121,121,121,122,121,122,122,120,121,122,120,119,123,121,121,120,121,121,121,124,122,121,121,122,121,121,120,120,120,121,123,122,121,122,119
118,122,122,122,122,122,121,120,121,121,119,122,121,120,120,120,119,120,120,121,121,120,121,121,119,119,120,121,122,122,121,119,123,121,121,122,122,121,122,120,121,121,121,122,122,122,121,119,120,121,119,120,121,121,121,121,121,120,120,122,120,121,121,119,119,121,121,123,123,121,122,120,122,122,121,122,121,122,122,120,119,121,122,121,119,120,121,120,121,121,121,123,123,121,121,120,121,119,120,122,122,122,121,119,122,123,121,123,121,121,120,121,121,122,120,120,121,120,121,121,120,121,122,123,122,121,121,120
118,122,121,123,120,121,121,121,118,120,121,122,121,121,122,120,125,119,121,119,120,121,121,121,118,121,121,122,121,121,120,120,122,122,121,121,121,121,121,121,122,121,120,123,121,121,121,121,118,122,122,122,121,121,122,121,120,121,121,125,123,121,122,120,120,122,120,118,119,120,121,120,119,121,122,124,122,121,121,120,120,123,120,121,121,121,122,120,118,120,121,122,121,121,120,120,122,120,122,123,121,121,121,119,120,120,120,122,121,121,122,121,120,123,121,121,121,121,120,119,119,121,121,121,121,121,122,120
120,119,120,121,121,121,122,120,120,123,121,122,121,121,121,121,121,121,119,120,121,121,122,119,125,121,123,123,121,121,121,121,120,123,122,121,121,122,122,121,122,122,120,122,121,121,122,121,121,122,121,121,120,121,121,120,119,121,122,122,121,121,122,122,120,120,121,122,122,122,122,120,121,123,120,122,121,121,121,121,120,120,123,122,121,121,121,120,118,121,122,124,122,121,122,120,123,122,119,119,120,121,122,120,120,120,121,123,121,121,122,121,122,122,120,121,121,121,122,121,119,120,121,121,121,121,121,120
118,121,122,121,121,121,122,121,124,122,119,120,121,121,121,120,122,121,120,123,122,121,121,121,118,119,121,118,118,121,121,120,124,122,121,123,120,121,121,121,122,125,121,120,121,121,121,121,120,121,120,122,121,121,121,120,119,121,121,121,122,121,121,119,119,121,122,122,121,121,122,121,122,121,121,123,122,121,121,120,120,122,122,123,121,120,121,120,121,121,122,122,122,121,121,120,116,121,119,119,119,121,121,121,122,122,120,122,121,121,121,120,121,122,121,122,121,121,122,120,119,119,119,120,121,121,122,120
121,121,121,122,121,121,121,121,120,121,121,120,120,120,121,120,119,121,121,123,122,121,121,120,121,122,122,122,121,121,121,121,121,120,121,124,123,122,121,119,120,122,121,118,118,120,121,121,122,123,120,124,121,121,121,120,119,119,121,120,122,122,121,119,120,123,120,122,122,121,122,121,122,123,121,122,121,122,121,120,119,121,120,121,121,120,121,121,120,121,122,122,120,122,121,120,118,121,120,120,121,121,121,120,119,122,119,120,122,121,122,121,121,122,121,121,121,121,122,121,121,122,120,124,122,121,120,120
120,121,121,120,122,121,122,120,122,121,121,122,121,121,121,120,122,119,121,123,121,121,121,121,118,122,121,120,120,122,121,119,119,121,121,122,122,121,122,120,122,122,122,123,121,120,121,121,121,122,121,124,123,122,122,120,120,120,121,121,120,120,121,120,122,122,121,121,121,121,121,119,119,121,120,123,121,121,122,121,120,123,122,121,121,121,122,121,120,121,122,124,122,121,121,120,120,122,121,121,122,121,121,119,123,122,121,122,122,121,121,120,118,122,122,122,120,121,121,121,121,120,119,120,121,121,122,121
120,120,122,122,122,121,120,120,122,121,120,121,121,120,121,120,119,122,123,121,120,120,121,120,121,122,121,123,122,121,122,120,123,120,120,121,120,121,122,120,122,121,120,122,121,121,121,121,119,121,120,122,121,121,122,120,116,123,122,121,122,122,122,121,119,119,122,124,123,122,122,119,122,121,120,119,119,120,120,120,121,121,121,121,120,121,121,120,114,122,122,123,123,122,122,120,122,121,122,123,122,121,121,119,121,121,122,122,121,121,120,120,120,123,121,122,120,121,121,121,119,120,121,121,121,122,121,120
120,121,121,122,120,120,121,121,122,122,121,122,121,121,122,121,122,120,120,122,121,121,121,121,119,121,121,123,120,120,121,121,123,121,120,120,120,121,121,121,123,121,121,122,122,121,121,120,120,123,119,121,123,121,121,120,120,123,121,124,120,121,121,119,120,122,121,121,123,121,122,120,121,121,121,118,118,121,121,120,120,121,120,123,122,121,121,120,120,122,121,122,122,121,122,120,120,124,121,121,121,121,121,120,122,120,122,122,121,121,121,120,119,121,121,122,122,121,122,121,121,121,120,121,120,121,121,120
119,119,120,121,121,121,122,120,121,122,121,122,121,121,121,121,121,121,122,122,121,121,121,121,118,122,120,121,121,121,121,119,122,121,122,123,122,121,120,120,125,121,119,122,121,121,122,121,120,122,121,121,121,121,121,120,120,121,122,122,121,121,121,120,119,121,121,124,122,121,121,120,121,122,121,119,120,121,121,120,121,120,120,120,120,121,122,120,119,121,121,124,122,121,121,121,120,121,117,120,121,121,121,121,121,123,122,123,121,121,122,122,121,122,123,122,121,122,122,120,119,123,122,123,121,121,121,120
121,121,120,120,120,121,121,120,121,121,121,121,121,121,121,121,119,123,120,123,121,121,122,121,121,122,121,121,122,121,121,119,121,121,121,121,121,121,121,120,119,122,122,122,121,120,121,121,121,122,121,121,120,121,121,121,122,122,121,122,122,121,120,120,120,121,121,123,122,120,121,119,121,123,122,120,120,121,121,119,121,120,119,122,121,121,122,121,121,122,121,121,121,120,121,120,120,120,122,122,122,121,121,121,122,123,122,122,122,121,120,120,122,123,121,123,122,121,121,120,122,121,120,121,120,121,121,120
118,123,121,119,119,121,122,120,121,122,121,122,121,121,121,121,119,121,122,123,121,120,121,121,119,122,121,121,121,121,122,121,119,122,121,122,120,120,121,120,120,123,122,123,121,121,121,120,120,122,121,122,121,121,121,120,120,120,121,121,121,121,122,120,122,122,120,121,120,121,121,121,122,122,122,122,122,121,122,120,122,122,119,122,121,121,121,120,120,120,121,122,121,121,121,120,121,123,121,122,122,120,120,119,120,123,120,120,121,121,121,121,119,122,120,120,121,121,121,121,118,120,121,122,121,122,121,121
122,121,122,122,121,121,121,119,121,122,122,124,122,120,121,121,121,121,120,118,119,121,122,121,120,120,120,124,122,121,122,120,121,122,121,123,122,122,121,120,118,121,121,121,121,121,121,120,123,122,122,122,121,120,121,120,119,121,121,122,120,120,121,120,116,122,122,123,122,122,121,120,122,123,120,120,121,121,121,121,121,122,121,121,120,122,121,120,121,120,121,122,122,121,121,119,118,121,121,121,121,121,122,120,122,122,122,123,121,121,121,121,122,121,120,122,122,122,121,120,121,121,120,120,120,121,122,120
121,121,123,123,121,121,121,120,120,122,121,121,121,121,121,120,121,122,122,122,121,121,121,122,121,121,120,122,121,121,122,120,120,121,120,122,121,121,122,120,121,123,122,121,121,121,122,121,117,120,119,121,120,121,121,121,119,122,121,121,121,121,121,121,122,121,120,121,120,120,121,120,119,120,122,124,122,122,121,121,124,122,122,123,121,121,121,120,120,121,120,119,119,121,122,120,120,120,120,122,121,121,122,120,123,121,119,120,121,120,121,120,122,123,123,123,121,121,122,121,118,121,122,123,121,121,121,119
121,120,121,122,120,121,121,120,119,121,120,121,121,121,122,120,120,122,121,121,121,121,121,121,121,123,121,121,121,121,121,121,118,120,123,123,121,122,121,120,120,119,119,121,122,121,121,119,122,124,122,123,121,121,121,121,121,122,121,121,121,121,122,120,120,121,119,121,120,121,121,120,121,121,120,120,121,121,121,121,120,122,120,122,121,121,122,121,121,121,121,123,121,121,122,121,123,120,120,118,119,121,121,121,121,122,120,123,121,121,121,121,120,123,121,120,122,120,120,121,117,121,122,124,122,122,121,121
119,121,122,121,120,121,121,120,120,121,122,122,120,121,121,121,120,122,121,122,122,121,121,121,121,121,120,122,121,121,121,121,120,121,124,122,121,122,121,120,123,121,121,122,121,121,121,121,119,122,119,121,121,120,121,120,120,123,123,122,121,121,121,120,121,119,120,121,121,121,121,120,121,123,121,121,120,120,121,120,122,122,120,122,121,121,121,120,121,123,121,121,120,121,121,121,118,122,121,123,122,122,121,120,122,122,121,122,121,121,121,121,119,122,121,119,119,121,122,121,121,121,120,122,121,120,121,121
119,122,122,122,122,121,122,121,121,120,121,123,121,121,122,121,120,123,121,122,122,121,121,120,120,121,121,122,122,121,121,120,121,122,121,122,121,121,121,119,120,119,119,122,121,121,121,121,120,122,120,120,121,121,120,120,117,121,122,122,122,121,122,120,120,121,121,121,122,121,122,120,123,122,122,123,121,121,121,121,121,121,121,123,122,121,122,120,121,121,120,122,120,121,121,120,120,121,121,122,122,121,121,119,120,122,122,121,121,121,121,120,121,122,120,122,121,121,120,120,119,122,122,123,122,121,121,120
119,120,121,122,122,121,122,121,121,121,121,122,120,121,121,120,123,122,120,121,121,121,122,121,121,120,121,125,122,121,122,120,121,121,118,114,119,121,121,119,120,122,121,122,120,120,121,121,123,121,122,123,122,120,121,120,120,121,120,123,122,120,121,120,123,121,123,122,122,121,120,120,119,121,120,122,121,121,121,121,121,122,122,123,122,121,122,121,119,120,121,121,121,120,121,120,121,121,122,122,119,120,121,120,120,121,120,121,121,121,121,119,121,123,121,122,122,122,122,120,119,122,121,122,121,121,121,120
121,121,121,123,121,120,120,119,121,122,122,123,121,120,121,121,121,122,122,121,121,121,121,121,120,121,121,124,122,121,122,120,121,120,120,119,119,121,121,120,123,121,120,121,120,121,122,121,121,122,121,122,122,121,121,121,120,120,121,123,122,121,121,119,120,122,123,121,121,122,122,121,121,121,119,122,121,121,121,121,120,121,122,122,121,122,122,120,117,120,122,123,122,122,121,120,119,122,120,121,122,121,121,120,122,122,121,121,119,121,122,122,121,123,121,120,121,121,121,121,117,120,123,122,122,122,122,120
121,122,119,120,121,121,121,120,122,121,122,123,121,120,121,120,122,121,121,121,120,121,121,121,119,122,122,122,122,120,121,121,123,121,121,121,120,121,121,121,121,123,120,120,120,120,120,119,121,122,121,123,122,122,121,121,120,121,121,122,121,121,122,121,118,119,118,121,122,122,122,120,122,122,124,121,120,121,121,120,120,121,121,123,122,121,121,121,122,120,120,122,121,122,122,120,121,120,119,120,122,121,121,120,121,123,123,124,121,121,120,120,122,121,121,119,119,120,121,120,119,120,121,123,122,121,121,120
117,122,122,124,122,121,122,120,121,122,120,121,120,120,121,121,120,123,121,121,122,121,121,120,120,120,120,122,120,121,122,120,119,121,120,122,122,121,122,120,123,122,121,122,121,121,121,120,120,120,119,120,121,121,122,121,120,121,121,121,122,121,122,121,119,120,121,123,122,122,121,119,123,124,121,123,122,122,122,122,123,122,121,122,121,120,121,120,119,121,121,122,121,121,121,119,120,120,118,120,121,121,122,120,121,122,122,123,122,121,122,121,123,123,121,118,119,121,121,121,119,123,121,124,120,120,121,120
122,122,120,117,120,121,121,120,120,121,121,124,122,121,121,120,123,121,122,122,122,122,122,121,121,122,122,122,120,120,121,120,119,121,119,121,121,121,121,120,120,120,119,118,120,121,122,120,120,122,122,122,123,121,121,121,119,121,121,121,120,121,122,120,119,120,121,123,122,121,121,118,120,121,122,122,122,121,122,120,118,120,120,121,122,122,122,120,120,122,122,123,121,121,121,120,121,122,121,121,121,121,121,120,120,122,120,123,121,121,121,121,121,122,120,123,122,121,122,120,121,121,121,119,120,121,121,119
120,119,120,122,122,121,121,121,121,123,122,123,121,120,121,121,121,122,122,122,122,121,121,120,122,121,122,122,122,121,121,120,122,121,118,120,121,120,121,120,120,122,122,123,121,120,120,119,121,120,122,122,120,121,120,121,119,121,122,122,123,122,121,120,120,123,122,122,122,121,121,119,121,122,119,122,121,122,122,120,120,121,120,121,120,122,121,120,118,123,123,122,121,122,121,121,122,121,119,122,122,121,120,119,119,120,121,121,122,121,121,120,119,121,121,121,122,121,121,120,120,121,121,122,121,121,122,120
121,121,122,125,122,121,121,121,120,122,120,117,119,120,121,120,119,121,121,123,122,121,122,121,123,122,121,123,121,121,121,120,120,120,122,123,122,121,121,121,123,122,120,122,122,121,121,120,122,122,121,121,120,120,121,121,118,120,122,123,122,121,121,120,120,123,123,123,122,122,122,121,121,121,119,121,121,121,122,121,120,121,120,121,122,121,121,120,120,121,121,123,122,121,121,120,118,121,120,121,120,121,122,121,121,122,122,122,122,121,122,121,121,120,120,121,121,121,122,121,116,122,122,122,120,120,120,120
122,123,121,121,121,121,122,120,121,121,119,122,121,121,121,120,121,124,122,120,119,121,122,121,122,120,120,121,122,121,121,119,119,123,121,121,121,121,121,120,119,121,121,123,121,121,121,120,119,120,122,123,122,121,121,120,121,121,120,121,121,120,121,120,121,120,121,122,122,121,121,120,123,122,122,122,121,121,121,119,119,122,122,121,121,121,121,120,120,122,120,122,122,121,121,120,120,123,123,122,121,120,121,120,123,121,121,122,121,121,121,120,120,120,122,123,123,121,122,120,121,121,121,119,117,120,121,120
120,120,121,122,123,121,121,119,121,121,120,123,122,121,122,121,121,121,122,123,122,121,121,120,121,121,120,122,120,121,122,120,119,121,120,120,122,121,120,120,120,121,121,122,121,121,122,121,119,123,121,123,122,121,121,121,120,121,120,120,121,121,121,120,121,121,121,123,121,121,121,121,119,121,122,124,122,122,121,119,120,123,121,121,121,122,121,121,122,119,118,120,121,121,121,120,121,122,121,124,122,121,120,119,121,122,123,124,123,121,121,119,121,122,121,120,119,120,121,120,121,120,119,119,122,121,122,121
118,120,122,123,122,121,121,120,120,121,120,121,120,121,121,121,121,122,121,123,123,122,121,120,122,120,123,123,121,122,121,120,121,120,119,120,121,121,121,120,119,122,120,121,121,121,121,121,120,121,121,123,122,122,122,121,120,122,122,121,121,122,122,120,120,121,121,124,121,121,121,119,120,121,121,120,121,121,121,120,122,122,121,118,117,120,121,121,117,122,122,124,124,121,121,121,120,122,122,122,122,121,121,120,122,120,121,121,120,121,122,121,121,121,120,122,121,121,121,119,119,122,121,120,121,121,120,119
121,121,122,123,122,120,121,120,120,122,120,122,121,121,121,121,121,121,122,121,121,121,121,121,120,122,122,122,122,121,121,120,123,121,121,122,121,121,121,120,121,122,121,123,122,122,122,121,120,121,120,121,121,121,120,120,119,121,119,120,121,121,121,119,120,121,122,123,122,122,122,120,122,121,123,123,122,122,121,120,118,119,118,121,121,121,121,120,120,123,122,121,121,121,122,120,119,121,122,121,120,120,121,119,120,123,121,123,122,121,121,121,121,121,121,122,121,120,121,120,121,121,121,123,121,121,122,120
120,123,121,119,120,121,121,119,120,118,120,123,121,121,120,119,121,121,119,119,121,121,121,121,124,129,126,124,122,122,122,121,119,117,119,122,120,120,121,120,121,115,118,123,121,120,120,120,121,126,122,119,120,120,121,119,123,127,124,122,121,122,122,120,119,116,117,121,122,121,122,120,120,121,120,122,120,121,121,121,122,119,123,123,121,119,120,119,119,120,119,121,121,122,121,120,116,123,120,121,121,120,120,119,120,125,125,123,122,122,122,121,126,125,122,123,121,120,121,122,120,117,119,121,121,120,120,119
118,116,119,122,120,120,121,119,119,119,122,121,121,120,121,121,119,123,118,120,121,122,122,120,121,111,118,121,121,121,121,120,121,134,124,122,122,121,121,121,120,119,123,124,120,121,121,120,120,119,115,114,118,120,121,121,122,132,122,122,123,121,122,121,119,119,123,122,122,122,121,119,121,116,122,123,121,121,120,119,122,129,121,120,121,121,122,121,119,119,120,121,121,120,121,119,119,117,119,121,120,120,121,119,123,125,120,122,121,121,121,121,118,107,117,121,120,121,121,120,124,121,121,121,121,121,122,121
118,130,125,121,121,121,122,121,123,140,131,124,122,122,122,121,120,108,116,120,120,118,120,120,119,123,120,123,122,125,124,121,117,113,120,120,120,118,120,119,122,116,116,123,122,119,119,121,123,138,133,122,122,127,122,119,113,100,113,118,117,116,121,121,121,116,119,125,124,120,119,116,123,124,114,122,122,120,116,120,118,120,129,121,121,119,121,117,118,113,108,119,119,101,100,116,124,113,126,124,128,160,151,128,121,133,129,122,119,111,113,118,123,125,113,120,121,123,125,120,116,98,120,122,121,117,118,122
127,126,120,122,122,123,122,122,119,111,123,124,124,140,145,116,121,135,136,122,119,116,121,129,118,118,119,123,120,114,115,117,120,127,121,122,122,121,121,121,121,123,117,122,122,119,119,118,123,150,130,123,121,120,121,119,117,99,109,120,123,132,127,118,122,122,128,123,121,120,121,121,118,109,111,121,121,120,120,114,121,135,120,123,122,121,120,121,121,108,108,119,120,120,121,120,120,129,136,125,122,120,120,120,124,141,112,123,121,120,121,120,122,146,133,123,121,121,121,121,122,123,119,122,123,122,122,121
116,119,117,120,121,121,121,119,119,93,112,120,120,120,119,119,123,137,123,123,122,121,121,121,122,130,125,122,122,121,121,121,114,103,118,119,121,120,119,119,124,135,121,123,122,121,121,121,115,94,107,119,120,120,120,118,128,154,138,126,122,111,114,123,122,126,126,122,122,124,134,123,117,106,109,119,120,119,119,118,123,108,133,125,120,112,114,119,118,124,114,123,124,146,133,121,123,99,121,121,121,119,111,122,117,122,125,124,123,120,121,121,122,112,113,120,121,119,118,119,117,134,116,120,119,118,119,118
119,115,126,118,118,120,121,120,127,133,131,126,122,120,121,121,118,108,117,118,118,117,118,118,122,116,120,122,123,122,124,123,117,125,117,119,120,116,117,118,123,121,116,121,123,128,124,112,114,110,117,124,122,119,123,120,121,109,124,122,121,112,109,120,122,125,104,118,120,114,116,115,124,146,144,130,124,130,132,131,130,173,126,122,121,118,118,122,116,136,115,120,119,113,117,119,122,108,110,119,121,119,124,121,129,165,116,121,119,118,115,118,130,147,153,125,121,115,121,136,120,191,113,121,123,141,134,121
115,214,109,118,120,127,121,111,120,241,119,120,120,119,116,115,125,242,114,120,120,118,119,120,115,242,100,122,121,120,120,119,119,172,115,118,120,121,121,119,126,132,138,126,123,113,113,122,120,124,104,120,123,130,132,128,121,122,110,122,120,119,119,120,116,122,121,119,119,119,119,118,121,122,124,124,121,119,122,121,124,122,114,116,118,111,123,130,121,121,119,123,123,122,128,123,117,121,115,123,120,114,113,117,130,121,138,124,123,117,116,122,120,122,114,122,119,111,114,121,122,121,130,122,123,117,117,126
129,121,119,120,122,129,139,126,123,122,104,119,119,113,108,118,107,121,129,122,122,126,123,118,121,121,117,120,119,115,118,124,118,122,129,125,123,121,126,120,136,121,135,125,121,120,119,122,114,98,117,119,120,121,119,119,124,97,124,123,123,130,125,121,118,0,126,125,121,120,120,119,131,0,126,123,123,122,123,124,118,0,113,116,119,120,120,118,116,0,128,125,122,121,121,119,123,0,125,122,121,118,118,117,126,0,126,123,122,131,134,128,125,0,122,121,120,117,117,120,120,0,142,122,120,118,118,121
112,115,119,122,123,131,127,115,131,229,130,125,123,143,144,118,123,240,116,120,120,117,114,120,120,241,115,121,120,118,115,115,115,241,120,122,122,118,115,119,115,202,97,118,121,130,129,120,136,149,139,126,123,121,122,123,119,151,136,123,120,119,118,115,124,203,109,121,120,114,118,134,119,213,118,120,121,126,125,115,129,228,126,123,122,120,122,124,112,126,114,123,123,123,122,120,118,155,117,119,119,119,118,116,113,138,109,122,121,121,120,118,111,145,115,121,122,141,128,119,126,146,130,122,119,113,115,116
116,69,113,117,119,121,119,120,123,109,128,123,121,119,116,111,122,130,116,121,121,118,113,124,121,109,104,119,121,129,135,119,125,90,116,118,118,115,121,135,121,111,119,122,121,119,118,118,114,3,136,121,120,112,114,119,119,16,101,118,122,136,128,120,119,40,132,123,122,125,126,123,117,170,118,118,119,112,116,117,122,183,114,122,122,119,119,125,117,235,108,120,120,116,124,111,124,190,119,121,120,120,122,132,129,176,130,123,121,119,117,124,126,101,131,125,124,116,119,122,120,98,136,124,123,129,130,121
119,92,110,115,117,115,119,119,122,120,113,121,121,126,123,120,114,150,126,120,120,120,122,119,122,179,126,124,121,110,113,121,127,155,131,125,124,139,130,124,121,173,145,127,121,111,113,116,121,166,115,120,122,124,124,120,116,125,100,117,119,118,121,122,127,116,128,124,122,121,119,121,117,122,129,121,120,116,118,118,124,129,123,121,120,124,132,123,115,104,110,121,121,123,119,117,122,128,104,119,119,118,118,118,119,112,102,120,121,123,122,120,116,141,137,125,120,104,109,116,117,133,114,121,123,144,139,128
121,137,120,120,116,89,85,101,130,195,119,119,123,151,154,139,121,108,125,122,123,125,115,118,130,106,127,123,121,119,117,121,118,124,107,120,121,114,114,120,117,101,124,123,121,121,116,123,124,118,108,120,119,114,117,123,122,76,135,125,124,129,127,122,119,98,103,118,119,111,112,119,120,118,121,123,119,112,113,115,123,145,124,124,126,155,148,127,118,152,118,123,121,119,122,118,123,136,121,120,119,115,115,118,123,105,108,121,121,120,121,120,112,140,115,121,121,121,120,117,123,113,119,123,122,122,120,121
120,111,123,122,121,122,126,120,115,101,123,121,120,118,119,124,125,124,122,121,121,121,119,115,119,127,119,120,120,118,119,118,122,86,121,121,122,121,120,121,126,128,126,123,123,129,130,127,119,117,115,119,120,124,124,113,117,92,124,122,123,118,117,117,122,132,115,121,121,119,120,118,117,119,114,120,120,114,115,115,121,122,111,122,121,127,126,123,119,131,136,123,121,109,111,117,118,149,101,120,120,118,120,122,126,85,148,127,125,137,132,130,133,140,125,122,119,116,118,121,115,82,112,123,124,121,121,120
117,130,123,122,122,121,121,119,119,71,114,122,121,125,125,122,118,146,123,119,119,115,119,121,130,127,126,123,122,126,125,120,125,89,115,122,121,124,124,122,117,138,123,120,120,119,120,119,121,107,102,121,121,115,116,122,117,121,121,122,121,140,132,120,130,144,130,125,122,112,117,122,119,126,113,121,122,129,132,118,125,142,118,121,120,118,123,130,119,138,119,119,119,119,118,115,116,110,128,124,121,120,120,118,122,130,132,121,118,111,114,118,123,133,128,124,123,118,119,122,127,151,118,121,118,101,109,121
117,119,113,120,124,147,139,119,124,119,139,123,121,118,117,120,121,125,120,122,120,115,116,123,118,127,109,118,121,129,125,118,121,72,136,126,122,120,122,123,124,114,111,120,121,121,121,119,123,143,135,124,122,121,121,120,114,130,97,119,121,121,122,120,113,133,123,119,120,116,113,106,126,88,129,123,121,115,113,123,114,111,118,122,124,147,142,123,122,113,119,120,120,116,112,113,119,114,115,119,119,118,119,120,119,108,112,120,119,114,117,118,119,141,137,123,120,124,119,115,122,108,121,121,122,118,119,121
119,118,123,121,123,134,126,118,125,112,127,121,121,119,121,123,117,107,120,124,122,125,122,120,122,128,114,120,119,117,119,119,117,134,129,125,123,111,105,114,123,75,113,121,121,121,124,125,124,139,121,123,120,117,118,119,116,121,115,121,120,115,115,115,123,122,130,122,119,123,127,122,122,125,119,123,122,117,113,116,120,135,132,123,122,121,122,122,117,140,109,118,119,119,120,119,123,122,130,122,118,117,116,118,120,98,126,124,125,134,131,123,119,123,105,120,120,116,118,121,114,110,114,121,119,118,119,117
120,135,127,121,120,111,111,118,119,140,115,121,122,137,125,118,120,138,132,123,120,117,117,120,115,123,115,120,120,119,122,124,116,128,120,119,118,115,114,119,119,136,117,121,120,120,122,118,128,116,120,121,122,119,117,121,120,127,118,122,122,128,129,120,119,136,121,122,121,119,119,116,117,122,123,120,121,118,121,121,124,111,139,126,123,122,124,123,123,150,115,120,121,121,129,122,121,157,115,122,121,120,120,119,125,162,135,127,126,124,123,122,125,170,129,124,122,111,116,122,111,242,107,121,122,142,130,117
126,241,126,122,123,130,134,121,119,242,115,122,121,131,136,122,130,240,134,125,122,119,118,121,121,163,123,121,121,120,121,126,119,130,108,120,121,121,118,117,119,123,134,123,122,125,131,124,124,121,108,122,121,111,112,119,122,122,121,122,122,129,130,121,113,122,122,122,120,116,117,115,118,121,122,123,121,116,119,125,117,121,102,118,119,121,121,119,122,122,125,121,121,117,118,119,118,121,122,120,121,131,127,118,119,122,105,119,121,121,120,120,125,121,126,119,119,121,120,120,114,122,127,123,121,118,117,117
120,122,120,122,123,123,122,120,117,121,116,122,123,132,135,134,118,121,123,120,121,122,126,119,122,121,127,124,123,118,118,121,116,122,118,122,123,127,118,112,124,122,120,120,121,125,134,135,122,121,124,122,121,118,118,118,118,121,123,122,121,120,119,117,119,121,112,120,121,119,120,120,121,122,113,119,120,115,118,118,121,121,126,123,121,124,122,118,119,121,114,119,120,115,111,115,118,121,144,125,121,119,123,116,115,122,118,122,123,129,125,122,124,122,126,122,121,126,125,122,123,121,130,123,122,122,120,118
117,121,119,121,121,120,121,119,115,122,124,120,121,116,114,119,125,121,120,122,122,129,139,123,118,122,105,121,119,112,114,118,117,121,126,122,122,119,119,118,121,122,142,126,123,120,120,120,117,122,113,118,119,120,121,123,124,120,116,122,122,119,119,120,119,121,124,124,123,121,121,119,120,121,119,120,120,113,118,120,120,122,129,124,123,133,136,125,119,121,118,123,121,119,121,118,119,121,116,120,119,118,118,116,119,121,134,122,122,122,121,116,119,120,116,123,123,125,125,128,119,122,131,122,120,121,122,123
124,121,119,124,123,120,119,126,126,122,126,121,120,121,123,115,123,122,113,120,120,118,118,119,119,122,133,124,122,123,122,121,122,121,113,120,119,111,112,117,116,121,114,118,120,125,122,130,123,122,119,122,122,125,126,124,118,122,114,122,120,120,122,119,124,122,128,121,120,111,113,117,119,122,121,122,123,135,133,138,123,121,126,120,121,124,126,121,122,121,120,122,121,119,118,119,117,121,129,124,122,117,118,118,120,122,113,123,122,121,136,130,125,121,117,120,121,123,123,119,122,122,125,123,122,118,119,123
121,121,114,118,118,118,119,121,118,122,117,121,122,120,121,121,120,121,120,122,121,112,114,121,121,121,114,121,123,130,133,118,113,122,121,121,121,124,122,115,122,121,120,121,121,119,121,127,125,121,121,122,121,119,113,113,119,121,123,120,121,121,125,122,117,122,117,121,121,117,119,120,115,121,116,120,120,119,121,119,118,121,112,121,121,118,117,117,118,121,119,121,120,114,117,120,122,121,120,121,122,131,130,121,120,122,118,122,122,123,123,119,124,121,121,122,120,119,120,121,119,121,123,121,121,121,122,121
115,122,106,119,119,118,119,118,123,121,122,122,122,120,120,120,122,121,122,119,119,118,119,121,120,122,117,120,119,110,106,118,124,122,123,123,122,129,138,123,118,122,109,121,122,120,116,118,121,121,121,122,120,120,121,116,117,122,121,124,123,120,122,123,124,122,120,121,121,121,122,122,120,122,126,123,120,115,115,118,117,122,117,122,121,123,127,120,123,121,120,121,122,132,126,123,118,122,125,121,121,120,121,119,122,122,110,120,120,116,117,119,121,121,141,125,121,121,121,120,119,121,111,120,121,121,120,116
120,121,121,121,121,118,118,119,125,121,125,122,121,120,119,121,119,121,116,121,123,142,133,116,119,121,124,122,121,116,119,129,121,121,115,122,121,116,114,118,121,122,134,123,121,119,125,120,121,122,118,123,122,119,119,121,116,121,116,121,121,122,123,120,125,121,124,121,121,120,121,121,121,122,117,121,120,117,119,120,122,121,126,122,121,120,120,118,121,121,120,123,122,118,119,120,122,121,131,124,124,129,126,122,118,121,114,119,119,119,119,118,120,121,122,124,123,123,127,123,122,121,118,120,120,114,117,118
118,121,117,122,121,119,120,119,116,122,116,120,120,116,117,120,119,121,117,121,121,124,125,121,122,122,130,123,121,122,118,115,121,121,115,122,123,128,132,138,124,121,133,125,123,120,121,123,123,122,117,120,120,118,116,119,119,121,119,121,122,122,127,121,119,122,118,118,118,118,120,120,119,121,137,126,124,120,129,124,122,121,113,120,121,131,127,122,121,121,117,121,122,126,121,117,123,121,123,124,123,120,122,122,118,122,119,119,119,119,119,118,119,121,125,122,121,121,122,120,121,122,119,122,120,120,119,119
115,121,110,121,120,120,120,119,126,122,124,122,121,118,119,123,119,121,119,121,120,121,132,122,122,122,121,121,120,119,120,122,119,122,127,120,121,120,119,116,113,121,122,122,120,121,122,118,120,121,117,120,121,120,119,118,123,121,123,123,122,122,121,122,122,122,128,123,122,126,122,116,121,121,130,121,120,113,114,119,117,121,121,123,123,126,135,115,117,121,118,120,120,119,117,121,122,121,124,122,122,116,113,117,119,121,116,121,121,119,120,119,120,121,115,120,121,121,121,120,120,121,121,122,122,121,123,120
121,122,119,122,120,125,124,121,123,122,125,122,121,116,115,120,121,121,122,122,123,132,131,124,121,121,125,121,121,110,113,118,120,122,119,122,121,129,126,120,119,121,115,122,121,108,112,116,121,121,130,124,126,173,154,128,121,121,120,120,120,115,123,122,118,121,109,120,120,120,135,121,125,121,126,123,122,119,115,118,119,121,114,120,119,117,119,119,121,121,123,123,122,115,116,121,127,121,118,122,121,122,121,122,120,122,121,121,120,122,122,119,117,122,134,124,121,113,116,121,120,121,122,121,121,119,117,119
119,121,117,122,122,124,124,119,120,122,129,123,121,117,116,120,124,122,111,121,122,127,127,121,120,122,127,123,121,116,119,119,121,121,123,123,121,127,123,117,120,121,108,120,122,125,122,120,115,121,121,121,119,113,117,119,125,121,129,122,123,132,120,119,116,121,119,122,121,119,127,123,119,121,117,121,120,116,116,117,121,122,128,122,120,116,117,118,121,121,130,122,122,124,125,121,120,122,113,123,122,118,116,119,122,122,130,120,120,123,124,118,121,122,118,121,119,117,117,120,121,122,120,123,122,117,118,120
122,121,118,120,120,115,116,119,119,122,123,123,122,115,124,120,121,121,118,120,118,111,113,118,119,122,115,121,122,144,134,117,119,121,127,122,122,125,121,119,121,121,110,118,120,117,115,120,118,121,123,121,120,110,117,112,125,121,131,125,124,138,138,127,117,121,114,121,123,121,119,111,116,122,120,120,119,115,116,126,125,121,124,123,122,128,125,120,118,122,119,121,120,119,119,119,119,121,131,122,120,121,121,120,116,121,119,120,120,119,119,120,120,121,125,122,122,130,125,121,122,121,112,120,121,122,121,120
118,122,134,124,120,118,121,119,121,121,107,121,120,119,123,129,124,122,117,120,119,116,116,119,119,121,137,123,121,118,117,113,117,122,110,120,120,117,115,121,120,121,119,121,121,121,124,120,114,121,114,120,120,112,110,112,122,121,119,124,123,124,126,122,117,122,122,121,119,115,117,119,121,122,117,123,123,128,126,120,118,121,122,122,120,119,118,120,119,121,119,119,120,115,113,116,131,121,123,122,120,118,120,122,112,121,123,123,122,119,116,113,121,121,125,124,122,119,119,126,118,121,114,121,121,113,115,119
120,121,123,123,122,124,128,119,121,122,118,118,119,119,114,119,133,121,139,126,123,122,124,126,116,121,120,123,122,114,116,121,121,121,118,122,123,128,125,122,120,122,112,120,121,133,132,120,125,122,132,123,121,116,116,121,115,121,113,121,121,120,119,117,127,121,138,123,121,118,119,130,122,121,116,119,120,116,120,120,120,122,113,120,121,132,129,119,121,122,131,122,121,119,119,120,115,122,120,122,119,112,115,117,123,121,117,120,122,126,123,119,119,122,123,125,123,117,120,124,124,122,126,122,121,125,131,122
118,121,117,121,120,118,118,119,119,121,125,122,122,118,117,119,115,122,110,120,120,123,125,120,114,121,114,119,120,118,112,117,122,122,128,123,120,126,131,118,115,122,107,118,119,118,116,118,125,121,127,124,122,121,120,120,121,122,117,122,121,120,120,119,119,122,128,121,118,116,116,119,123,121,119,121,123,125,121,119,125,121,123,123,121,117,123,119,119,121,123,121,119,114,117,128,118,121,121,123,122,123,126,119,120,122,116,120,119,103,106,128,118,122,116,122,123,145,136,112,121,122,113,122,121,121,122,120
118,121,118,123,122,118,117,117,124,122,126,122,120,117,119,121,119,121,109,120,120,114,120,120,122,121,125,124,124,131,128,121,119,121,133,123,122,121,122,120,118,122,101,118,119,117,117,118,120,122,136,124,120,117,119,121,121,121,112,121,122,120,118,119,121,121,122,121,123,138,134,118,118,122,118,120,120,117,115,121,115,121,109,120,121,121,121,118,121,121,127,122,121,117,119,118,120,121,123,122,121,122,123,120,116,121,115,119,120,120,121,122,124,122,128,122,120,120,122,120,119,121,115,122,122,122,122,126
116,122,116,120,120,125,127,117,125,121,126,123,122,118,117,119,115,122,120,122,121,120,120,118,125,121,116,122,120,116,116,123,115,122,110,119,119,120,126,121,124,121,134,125,122,113,113,118,119,121,117,120,120,119,119,119,124,122,113,120,119,119,128,133,122,121,124,123,123,129,122,115,123,121,117,121,122,121,120,116,115,121,113,119,120,119,120,129,120,121,129,124,122,121,120,120,117,121,104,121,121,119,119,117,119,122,125,121,120,116,115,120,117,121,108,121,123,126,129,120,123,122,123,121,120,113,116,122
119,121,111,120,122,125,133,118,118,121,117,123,122,113,113,120,119,121,121,120,119,123,121,119,120,121,110,121,120,118,114,115,125,120,136,122,121,120,122,121,121,122,122,122,121,121,122,126,117,121,119,121,121,121,121,117,123,121,121,122,120,119,120,121,121,121,128,122,122,131,125,124,125,122,123,122,121,118,116,117,118,121,117,122,121,118,124,120,127,121,123,121,121,123,128,121,119,121,119,122,126,140,130,121,122,121,135,124,120,112,122,122,118,121,118,121,124,148,141,120,125,121,114,121,121,116,115,119
117,121,111,121,121,120,122,122,118,121,112,123,121,121,121,118,122,122,131,122,121,122,122,119,125,122,121,122,121,121,121,119,122,122,118,120,120,117,119,119,121,116,120,123,123,124,123,123,119,122,124,120,120,117,122,120,115,122,122,124,122,113,115,118,122,121,121,122,121,120,123,120,120,92,122,121,120,119,120,120,124,110,118,124,122,121,123,121,120,127,133,123,121,119,119,122,121,147,112,120,120,118,119,119,126,117,135,125,124,128,127,122,125,143,116,122,121,113,111,120,117,125,140,127,125,134,135,123
122,122,112,120,119,112,117,119,119,122,115,121,121,124,121,118,125,121,128,123,121,118,121,123,120,122,124,122,121,119,116,118,125,122,114,119,119,120,122,121,120,122,139,123,120,120,121,121,121,122,118,121,121,119,119,121,124,122,119,121,122,130,129,121,117,122,127,123,121,117,114,123,119,121,113,123,122,125,129,120,119,121,129,120,119,112,112,116,120,122,119,122,119,107,124,124,118,122,118,122,123,134,130,120,121,121,125,121,121,117,121,127,118,121,120,121,120,119,116,116,119,121,119,120,119,118,120,119
116,121,118,121,121,119,117,122,120,121,119,121,121,120,125,125,121,121,130,123,122,120,120,119,118,121,119,123,122,121,123,122,119,121,120,121,119,117,117,119,118,122,117,119,120,116,119,119,118,121,135,125,122,123,126,121,120,121,111,121,120,116,115,119,120,121,129,123,122,118,116,118,121,122,109,120,120,125,122,118,121,121,136,124,120,118,119,119,120,121,130,122,121,119,118,120,118,121,107,120,121,122,122,119,121,122,114,120,119,120,120,120,123,122,128,125,122,118,120,122,119,121,114,120,120,116,116,119
122,121,117,121,121,120,125,128,119,111,119,123,123,126,133,122,116,118,120,121,121,116,118,123,122,134,125,122,120,118,116,117,119,122,121,122,120,119,116,117,119,121,109,119,119,115,123,121,125,121,135,125,121,117,116,121,125,121,125,121,120,114,113,119,119,118,118,120,120,118,125,124,121,109,119,122,122,132,127,117,117,122,117,121,121,114,121,122,122,151,115,122,122,125,123,120,123,126,127,122,121,119,119,119,120,122,114,120,119,112,115,118,119,117,133,124,122,123,123,124,118,124,112,121,122,126,124,122
115,121,126,120,119,110,112,116,125,121,127,124,123,125,129,122,122,121,121,122,121,121,125,122,119,121,117,122,123,124,127,124,118,121,129,121,120,106,112,112,120,121,124,125,125,152,150,128,122,121,121,122,120,109,113,129,120,117,119,122,122,127,123,113,120,122,110,120,118,111,117,129,117,121,132,125,124,136,128,115,120,121,117,120,120,112,116,121,124,122,114,122,121,130,126,119,123,122,125,120,120,119,124,123,123,121,136,123,120,119,118,116,115,122,106,119,119,115,115,121,123,121,133,124,123,129,133,129
120,106,102,118,120,120,119,117,114,84,134,122,120,109,110,116,122,135,111,121,125,151,147,123,121,111,136,122,120,114,115,124,116,68,116,120,119,112,115,118,122,114,108,120,122,133,130,129,121,95,127,124,121,116,118,116,127,66,129,122,122,115,117,129,111,100,110,120,119,118,123,115,128,98,124,122,121,111,111,121,124,148,118,121,123,145,145,120,118,124,119,123,122,115,117,127,117,160,111,120,121,132,127,116,123,111,112,120,119,112,118,120,116,129,133,122,122,131,131,119,120,155,132,125,122,119,117,116
120,182,120,120,120,116,112,116,118,131,119,122,123,127,132,119,125,60,114,123,122,118,120,125,117,139,120,122,121,125,121,114,120,127,127,125,122,115,120,128,125,146,112,120,119,117,121,121,121,118,134,124,120,113,114,118,117,101,113,123,122,126,123,120,123,153,109,120,121,120,121,122,116,116,132,123,121,120,121,119,120,90,119,121,122,120,119,119,126,124,123,121,121,122,119,122,118,132,109,122,124,131,128,115,121,109,123,122,120,117,123,137,117,86,121,122,121,121,122,119,119,61,121,123,124,142,144,126
124,135,123,121,119,117,121,124,117,111,109,118,119,117,116,119,123,225,124,122,121,120,119,120,121,157,112,119,120,116,117,117,116,127,124,121,123,142,133,120,121,122,108,121,121,125,124,119,121,121,130,123,121,119,120,121,118,122,118,122,121,120,119,120,118,121,107,121,122,121,118,122,117,121,130,124,123,125,125,121,121,122,108,120,120,117,121,121,119,113,123,122,120,115,115,112,127,74,128,124,122,127,123,135,118,57,138,124,120,113,116,118,120,116,107,119,120,118,117,112,125,141,130,121,122,118,118,126
120,126,130,124,120,117,119,118,117,133,115,122,123,131,121,115,119,127,117,120,119,122,128,121,123,158,125,124,122,117,123,120,122,182,132,125,122,115,115,121,120,107,115,118,118,112,111,116,123,112,120,123,124,128,134,126,120,156,119,120,119,115,118,119,120,61,123,120,122,120,120,120,120,44,132,123,121,120,119,119,118,24,109,121,121,120,119,117,125,36,136,124,121,118,120,119,119,111,105,118,121,127,127,120,123,86,118,125,122,119,120,121,117,111,144,124,119,109,109,118,117,147,104,119,122,140,133,122
116,225,132,121,119,116,119,118,116,198,113,121,121,115,113,112,126,115,125,124,123,124,123,122,117,134,112,120,121,113,117,118,120,170,119,122,121,123,120,118,125,153,111,121,122,122,117,119,120,121,127,124,123,126,125,119,119,108,117,122,121,114,113,116,116,115,114,121,122,125,121,117,123,89,108,120,121,130,134,129,117,34,131,124,119,109,108,113,122,35,123,123,122,122,123,119,120,0,117,120,122,124,126,117,119,11,127,124,122,121,121,132,119,188,111,119,119,118,119,118,121,158,124,124,122,118,119,120
125,155,127,121,121,122,131,128,116,137,129,126,123,120,120,121,116,242,108,122,122,123,123,119,124,241,114,121,121,121,121,125,121,167,124,121,120,120,121,119,118,130,111,120,120,108,113,121,121,124,129,125,123,137,134,122,121,122,129,120,120,116,117,119,117,122,118,120,120,110,109,119,119,122,119,125,123,134,131,117,124,122,139,121,120,116,117,121,121,121,113,120,120,119,119,119,121,106,121,119,120,121,120,117,121,82,128,124,122,118,120,119,121,81,120,121,120,117,117,120,123,92,127,122,121,126,131,125
122,81,129,121,119,111,112,118,119,83,127,123,122,124,126,124,118,59,126,123,121,116,118,120,127,235,121,123,122,117,115,122,118,238,106,119,119,113,118,116,127,158,129,120,121,125,123,121,124,86,133,127,125,124,123,119,116,158,116,122,121,120,120,126,118,127,118,119,121,120,120,117,115,122,114,121,121,119,119,117,118,121,127,122,121,117,116,116,122,122,115,121,120,121,137,129,125,61,117,119,121,122,118,118,122,38,145,127,121,116,114,121,120,38,122,119,120,124,125,120,119,144,118,121,120,114,115,119
121,142,122,124,122,124,127,122,119,144,122,121,121,119,117,119,122,105,116,121,121,122,126,120,119,132,118,119,120,118,118,121,119,164,126,123,121,119,118,108,124,181,115,119,119,112,117,143,125,138,122,121,122,139,136,117,118,164,114,123,123,123,116,123,118,162,124,123,120,118,121,120,120,59,123,122,122,121,120,121,120,95,121,121,120,119,120,119,124,103,133,123,123,132,128,122,114,85,122,124,121,124,121,119,121,68,115,121,120,122,125,121,121,31,131,122,120,116,116,119,116,0,103,119,120,118,113,120
123,117,131,122,124,149,143,119,122,143,111,121,120,116,115,125,115,194,110,119,120,118,118,117,117,191,131,123,120,123,123,119,121,214,119,122,121,129,120,117,121,126,119,121,120,115,120,122,117,146,118,121,120,118,116,116,125,164,123,124,122,120,125,122,119,164,120,121,121,122,120,118,120,91,133,124,121,111,113,121,116,121,109,121,122,126,126,119,121,113,126,121,121,124,125,121,116,95,130,122,120,119,119,112,123,85,112,121,121,119,119,125,118,97,122,121,120,118,120,118,122,55,133,125,124,126,123,122
124,81,113,118,119,119,120,120,118,25,125,123,121,119,119,119,126,83,135,122,121,122,120,120,123,127,119,121,121,120,121,121,121,228,113,121,122,124,116,116,123,182,125,122,121,114,118,127,128,219,126,126,124,118,120,122,121,241,118,123,125,136,133,115,117,166,110,119,119,110,116,120,119,110,121,120,122,128,128,121,122,112,117,121,121,117,115,129,119,133,108,121,122,123,123,119,124,143,135,125,123,121,120,121,119,87,110,120,120,117,119,120,121,133,129,124,124,139,132,121,122,105,120,121,121,116,116,119
119,66,133,123,123,124,136,125,121,143,123,123,123,128,122,120,120,185,108,120,120,114,114,125,125,133,141,126,123,131,129,122,116,123,107,120,121,123,123,115,114,122,116,121,122,126,124,118,123,122,124,121,119,110,111,111,119,122,122,121,123,133,133,130,119,121,122,123,121,118,116,118,125,121,122,121,120,114,119,123,118,121,120,122,123,132,136,121,121,121,121,121,120,119,117,119,125,121,129,124,122,121,128,129,122,117,123,122,121,125,126,120,122,74,121,122,121,111,112,118,121,95,116,122,122,126,126,117
122,92,120,122,121,117,115,121,118,94,116,119,120,117,116,114,124,159,140,124,124,122,120,121,120,202,111,119,120,120,119,118,117,146,110,122,119,108,113,119,125,125,127,122,124,147,134,122,120,122,124,120,120,127,125,121,126,122,143,130,126,124,123,124,114,122,115,120,119,118,120,120,122,122,116,119,118,119,130,120,126,121,132,125,123,121,115,115,120,122,128,122,122,119,129,123,118,121,115,121,119,110,111,114,122,121,112,122,122,134,130,122,118,121,124,120,122,118,115,115,121,121,134,125,123,124,120,132
124,121,115,121,121,124,124,118,114,122,125,120,120,114,113,116,116,107,112,123,123,123,122,117,119,122,119,121,120,113,114,123,122,122,125,121,119,118,124,120,115,122,107,119,121,121,122,120,122,77,124,122,120,115,116,118,117,48,106,119,121,124,121,118,120,107,135,125,122,120,120,117,122,219,119,120,121,124,121,118,120,153,101,122,122,128,124,120,127,127,142,127,122,114,115,122,117,123,114,120,119,111,116,117,125,122,115,120,118,110,114,122,118,122,126,127,126,133,133,122,123,122,130,123,119,113,115,121
117,121,115,119,120,125,121,114,120,39,135,124,122,120,118,120,125,29,115,121,121,118,121,128,121,104,127,122,118,112,111,114,122,201,123,123,124,135,129,119,119,177,111,120,119,108,110,117,121,106,114,122,122,122,135,119,122,32,126,122,122,129,122,117,122,0,128,124,121,118,120,124,119,0,108,118,119,120,121,115,123,51,130,121,120,122,127,134,120,220,118,121,121,118,116,117,119,241,124,124,124,126,125,120,116,241,107,120,122,132,125,119,121,205,133,122,119,116,119,116,116,138,107,121,120,116,121,117
122,115,132,123,122,130,125,116,122,40,127,122,122,113,114,120,115,26,120,122,123,129,132,121,121,82,117,124,121,117,118,120,122,131,127,121,120,114,112,119,121,69,133,124,123,141,137,121,119,90,119,122,120,117,118,118,126,105,124,122,121,119,120,123,122,164,115,120,120,116,129,125,118,151,132,123,121,118,111,111,116,92,114,121,121,119,119,128,120,66,130,124,123,129,129,117,117,114,107,118,122,135,132,119,113,97,139,123,120,114,116,117,133,112,135,123,122,129,126,125,120,223,119,121,120,119,120,120
120,241,122,122,121,118,123,123,120,212,119,121,121,121,119,118,119,139,115,119,120,120,123,120,119,123,125,121,120,118,118,118,124,121,122,121,121,122,117,116,120,122,122,121,121,120,127,129,121,122,110,122,120,112,112,118,116,89,114,120,121,119,122,122,121,61,129,121,120,122,119,119,119,20,114,118,120,120,120,118,119,22,130,124,122,130,128,118,122,12,114,119,119,117,120,133,120,165,121,121,121,118,118,118,121,241,114,119,120,124,124,130,119,240,119,123,120,119,120,119,118,168,118,119,118,113,113,116
120,130,123,123,121,119,120,118,116,124,122,121,122,125,119,119,123,93,123,121,121,118,131,126,121,106,129,123,121,118,119,122,118,159,110,120,120,128,123,116,125,124,129,123,122,122,123,127,122,121,137,124,121,121,121,119,119,77,111,121,121,121,117,118,118,70,124,120,120,118,118,118,118,169,112,121,121,121,122,117,121,162,128,124,121,122,124,122,117,127,112,120,120,114,117,119,115,122,125,123,122,120,120,117,125,77,122,121,122,138,134,123,117,49,120,122,120,112,112,116,123,145,126,125,124,131,131,122
122,149,128,122,119,117,119,117,127,99,125,123,121,115,123,121,117,165,118,123,123,125,128,129,123,152,114,120,121,123,121,121,121,128,128,122,120,112,116,122,117,90,116,118,119,120,125,113,116,69,116,119,120,119,117,118,124,142,124,124,122,120,123,121,121,114,115,120,120,121,118,124,120,80,126,122,120,117,118,118,123,113,116,119,120,120,121,119,118,126,129,124,123,123,120,122,119,111,115,120,121,119,121,122,124,99,133,123,121,118,113,112,123,45,124,121,122,133,139,130,118,132,121,119,119,115,113,115
123,149,123,123,123,118,121,122,124,212,115,120,120,120,119,118,119,153,115,119,119,119,121,121,124,146,114,121,121,120,122,119,119,146,127,122,120,120,122,126,123,98,125,119,119,117,117,119,120,120,127,123,121,118,118,119,118,168,116,120,121,124,122,117,120,114,119,121,120,115,118,120,124,132,130,122,120,111,113,120,118,82,121,124,123,140,131,119,120,46,129,122,121,118,116,119,120,51,114,121,121,120,121,120,118,33,115,122,121,116,117,115,121,220,132,125,123,132,130,124,120,212,116,123,121,115,119,121
