0.7898802161216736,0.5818576216697693,0.19317488372325897,-0.014639602042734623
0.7898942232131958,0.5818344354629517,0.1931869089603424,-0.014654390513896942
0.7898996472358704,0.581825852394104,0.19318991899490356,-0.014658813364803791
0.7898859977722168,0.581835150718689,0.1932162642478943,-0.014675700105726719
0.7898969054222107,0.581810712814331,0.19324368238449097,-0.01470207516103983
0.7899020314216614,0.5818039178848267,0.19324278831481934,-0.014703178778290749
0.7899166941642761,0.5817891359329224,0.19322781264781952,-0.014696056954562664
0.7899190187454224,0.5817881226539612,0.1932220160961151,-0.014692082069814205
0.7898849844932556,0.5818274021148682,0.1932423710823059,-0.014696851372718811
0.7898728251457214,0.5818409323692322,0.19325107336044312,-0.014699739404022694
0.7898651957511902,0.5818506479263306,0.193252831697464,-0.01469852402806282
0.7898545265197754,0.5818617343902588,0.1932632178068161,-0.014703258872032166
0.789832353591919,0.5818809866905212,0.19329416751861572,-0.014720936305820942
0.7898259162902832,0.5818858742713928,0.19330567121505737,-0.014728091657161713
0.7898011207580566,0.5819168090820312,0.19331379234790802,-0.014726058579981327
0.7897956967353821,0.5819259881973267,0.19330866634845734,-0.01471994910389185
0.7897806763648987,0.581942081451416,0.1933211386203766,-0.01472493726760149
0.7898011207580566,0.5819180607795715,0.19331054389476776,-0.014723392203450203
0.7898004651069641,0.5819183588027954,0.1933116465806961,-0.014724119566380978
0.7898038029670715,0.581923246383667,0.19328531622886658,-0.014703587628901005
0.7897929549217224,0.5819398760795593,0.19328001141548157,-0.014695417135953903
0.7897799015045166,0.5819599032402039,0.19327367842197418,-0.014685624279081821
0.7897682189941406,0.5819792747497559,0.19326446950435638,-0.014673887751996517
0.7897655963897705,0.5819870829582214,0.19325219094753265,-0.014662892557680607
0.7897729873657227,0.5819770693778992,0.1932518482208252,-0.014665239490568638
0.7897563576698303,0.5819903016090393,0.19327865540981293,-0.014681468717753887
0.7897412180900574,0.582008421421051,0.1932857483625412,-0.014681994915008545
0.789746105670929,0.5819963812828064,0.19330145418643951,-0.01469661295413971
0.789734959602356,0.5819995403289795,0.19333548843860626,-0.014720728620886803
0.7897403240203857,0.5820157527923584,0.1932508498430252,-0.014898745343089104
0.7897442579269409,0.5820140242576599,0.1932407021522522,-0.014891766011714935
0.7897198796272278,0.5820410847663879,0.19325871765613556,-0.01489796582609415
0.7897095680236816,0.5820438265800476,0.193290576338768,-0.014920591376721859
0.7897006273269653,0.5820415616035461,0.19333119690418243,-0.014950928278267384
0.7897805571556091,0.5819634199142456,0.19322898983955383,-0.015100919641554356
0.789764404296875,0.5819774270057678,0.19325140118598938,-0.015113714151084423
0.7897642254829407,0.5819746255874634,0.1932600736618042,-0.01512078195810318
0.7897627949714661,0.5819758176803589,0.19326169788837433,-0.015121670439839363
0.7897626161575317,0.5819814801216125,0.19324712455272675,-0.015109531581401825
0.7897316217422485,0.5820218324661255,0.1932523548603058,-0.015102936886250973
0.7897220849990845,0.58204185962677,0.1932326704263687,-0.01508334930986166
0.7897146940231323,0.5820494890213013,0.19323919713497162,-0.015086155384778976
0.7897074222564697,0.5820550918579102,0.1932523250579834,-0.01509431004524231
0.7896974086761475,0.5820691585540771,0.19325068593025208,-0.015089484862983227
0.7896958589553833,0.5820719599723816,0.19324886798858643,-0.01508742943406105
0.7898619174957275,0.5817738771438599,0.1934564858675003,-0.015225750394165516
0.789923369884491,0.5816472768783569,0.1935836672782898,-0.015263951383531094
0.789925754070282,0.58164381980896,0.19358402490615845,-0.015265115536749363
0.7899484634399414,0.5816119909286499,0.19358600676059723,-0.01527482271194458
0.7899536490440369,0.5816000699996948,0.19360016286373138,-0.015288257971405983
0.7899652719497681,0.5815824270248413,0.19360487163066864,-0.015296285040676594
0.7899894118309021,0.5815478563308716,0.19360922276973724,-0.015308433212339878
0.7899956107139587,0.5815423727035522,0.1936008185148239,-0.01530373189598322
0.7900006771087646,0.581537663936615,0.19359460473060608,-0.01530042290687561
0.7899948358535767,0.5815482139587402,0.1935873031616211,-0.01529237162321806
0.789979875087738,0.5815743207931519,0.19357134401798248,-0.015273942612111568
0.7900661826133728,0.5814583897590637,0.19356825947761536,-0.015265882015228271
0.7900719046592712,0.5814225673675537,0.19364260137081146,-0.015389842912554741
0.7901936173439026,0.5812938809394836,0.19352558255195618,-0.015475252643227577
0.7904003262519836,0.5810034871101379,0.1935378760099411,-0.0156646016985178
0.7905964255332947,0.5807247757911682,0.19356895983219147,-0.015720844268798828
0.790742814540863,0.5805048942565918,0.19362911581993103,-0.015737038105726242
0.7907578349113464,0.580488383769989,0.19362160563468933,-0.01568543165922165
0.7907321453094482,0.5805205702781677,0.19363023340702057,-0.01568339206278324
0.7907007932662964,0.5805546641349792,0.19365523755550385,-0.015692787244915962
0.7907175421714783,0.5805367827415466,0.1936408281326294,-0.01568692736327648
0.7907282114028931,0.5805231928825378,0.1936376839876175,-0.015688171610236168
0.7907232046127319,0.5805294513702393,0.19363942742347717,-0.015687836334109306
0.7907350659370422,0.5805221199989319,0.1936146765947342,-0.01567169278860092
0.7907255291938782,0.5805305242538452,0.19362773001194,-0.015679026022553444
0.7906978726387024,0.580569326877594,0.19362522661685944,-0.015667151659727097
0.7906755805015564,0.5805931687355042,0.19364404678344727,-0.015674704685807228
0.7906765341758728,0.5805851817131042,0.19366277754306793,-0.015690449625253677
0.7906858921051025,0.5805812478065491,0.1936376690864563,-0.015673168003559113
0.7906762957572937,0.5805938243865967,0.19363927841186523,-0.01567109487950802
0.7906584739685059,0.5806142687797546,0.1936509609222412,-0.01567431166768074
0.7906789779663086,0.5805936455726624,0.19362972676753998,-0.015664180740714073
0.7906805276870728,0.5805891752243042,0.19363617897033691,-0.015670057386159897
0.7906867265701294,0.5805835723876953,0.1936284899711609,-0.015665898099541664
0.7906767129898071,0.5805963277816772,0.19363108277320862,-0.01566449925303459
0.7906686067581177,0.5806068181991577,0.19363272190093994,-0.015662984922528267
0.7906786203384399,0.5805931091308594,0.19363243877887726,-0.015666337683796883
0.7906635403633118,0.5806090235710144,0.19364631175994873,-0.01567232608795166
0.7906700968742371,0.5806125402450562,0.19362734258174896,-0.015442161820828915
0.7907035946846008,0.5806385278701782,0.19342638552188873,-0.015263786539435387
0.7906976342201233,0.580734372138977,0.1931750327348709,-0.01510849129408598
0.7906928658485413,0.5808026194572449,0.19300000369548798,-0.014974784106016159
0.7906855940818787,0.580812931060791,0.19299866259098053,-0.01497115008533001
0.790658712387085,0.5808448791503906,0.19301261007785797,-0.014973074197769165
0.7906575202941895,0.5808537602424622,0.19299232959747314,-0.01495598629117012
0.7907223105430603,0.5808639526367188,0.19268491864204407,-0.015095057897269726
0.7907426357269287,0.580846905708313,0.1926540583372116,-0.015076931565999985
0.7907253503799438,0.5808683633804321,0.19266100227832794,-0.015076473355293274
0.7907319664955139,0.5808541178703308,0.19267570972442627,-0.015090886503458023
0.7907248139381409,0.5808583498001099,0.1926913559436798,-0.015101209282875061
0.7907092571258545,0.5808756947517395,0.19270257651805878,-0.015104935504496098
0.7907217144966125,0.5808565020561218,0.19270861148834229,-0.015114293433725834
0.7907182574272156,0.580854594707489,0.19272740185260773,-0.015128500759601593
0.7907395958900452,0.580826997756958,0.1927226334810257,-0.01513214036822319
0.7907333970069885,0.5808404684066772,0.19270850718021393,-0.015118366107344627
0.7907074689865112,0.5808647871017456,0.1927403211593628,-0.015135323628783226
0.7905348539352417,0.5810561180114746,0.19288994371891022,-0.014895401895046234
0.7905258536338806,0.581066906452179,0.19289472699165344,-0.01489611528813839
0.7905049324035645,0.5810981392860413,0.19288712739944458,-0.014882518909871578
0.790498673915863,0.5811126232147217,0.19287030398845673,-0.014866511337459087
0.7904909253120422,0.5811249613761902,0.19286580383777618,-0.014860054478049278
0.7904918193817139,0.5811291933059692,0.19285020232200623,-0.014847575686872005
0.7903705835342407,0.5812147259712219,0.19309452176094055,-0.014780032448470592
0.7903656959533691,0.581220805644989,0.19309602677822113,-0.014779577031731606
0.7903749942779541,0.5812115669250488,0.1930861473083496,-0.01477475743740797
0.7903899550437927,0.5811924338340759,0.19308249652385712,-0.014777041040360928
0.7903778553009033,0.5812078714370728,0.19308574497699738,-0.014775451272726059
0.790367066860199,0.5812193155288696,0.19309484958648682,-0.014779157936573029
0.7903326153755188,0.5812579989433289,0.19311881065368652,-0.01478668674826622
0.7903156876564026,0.5812722444534302,0.19314423203468323,-0.014801593497395515
0.7903037071228027,0.5812839865684509,0.19315747916698456,-0.014808248728513718
0.7902942299842834,0.581296980381012,0.19315719604492188,-0.014804703183472157
0.7903051376342773,0.5812799334526062,0.19316335022449493,-0.014813615940511227
0.7903315424919128,0.5812411904335022,0.1931707262992859,-0.01482901256531477
0.7902957201004028,0.58128422498703,0.19318774342536926,-0.014830349013209343
0.7902901768684387,0.5812876224517822,0.19319944083690643,-0.01483803242444992
0.7902736067771912,0.5813007950782776,0.1932264268398285,-0.014854365959763527
0.7902683019638062,0.581298291683197,0.1932540237903595,-0.014875185675919056
0.7902348041534424,0.5813345909118652,0.19328108429908752,-0.01488560065627098
0.7902281880378723,0.5813478231430054,0.19326898455619812,-0.014873333275318146
0.7902296781539917,0.5813432931900024,0.1932760626077652,-0.014879686757922173
0.790214478969574,0.5813632607460022,0.1932784914970398,-0.014876322820782661
0.790195882320404,0.5813829302787781,0.1932949274778366,-0.014883267693221569
0.7901784181594849,0.5813983082771301,0.19331912696361542,-0.014897003769874573
0.7901731133460999,0.5813992619514465,0.19333702325820923,-0.014909842982888222
0.7901651263237,0.5814068913459778,0.1933460831642151,-0.014914496801793575
0.7901434302330017,0.5814284086227417,0.19336901605129242,-0.014925706200301647
0.790172815322876,0.5814765095710754,0.19310523569583893,-0.014917178079485893
0.7901704907417297,0.58148592710495,0.19308701157569885,-0.014901419170200825
0.7901477813720703,0.581515371799469,0.1930917650461197,-0.014897296205163002
0.7901211380958557,0.5815458297729492,0.19310884177684784,-0.014901923015713692
0.7900919318199158,0.5815791487693787,0.1931278109550476,-0.014907201752066612
0.7900727391242981,0.5816020965576172,0.19313667714595795,-0.014907773584127426
0.7900428175926208,0.5816391110420227,0.19314789772033691,-0.014906436204910278
0.7900313138961792,0.5816537737846375,0.19315099716186523,-0.014904916286468506
0.7900087833404541,0.5816735625267029,0.19318240880966187,-0.014922784641385078
0.7899740934371948,0.5817093849182129,0.19321464002132416,-0.01493710745126009
0.7899810671806335,0.5816989541053772,0.19321730732917786,-0.014941761270165443
0.7899510860443115,0.581730306148529,0.19324520230293274,-0.014954058453440666
0.789926290512085,0.5817556977272034,0.1932687759399414,-0.014964749105274677
0.7899208664894104,0.5817636847496033,0.19326730072498322,-0.01496161613613367
0.78989177942276,0.5817955136299133,0.19328990578651428,-0.01496992725878954
0.7898672819137573,0.5818251967430115,0.19330066442489624,-0.014970130287110806
0.789840817451477,0.5818610191345215,0.1933017373085022,-0.014961665496230125
0.7898367047309875,0.5818600654602051,0.19331978261470795,-0.014975125901401043
0.7898322343826294,0.5818694829940796,0.19331052899360657,-0.014965921640396118
0.7898180484771729,0.5818869471549988,0.1933159977197647,-0.014965404756367207
0.789819598197937,0.5818876028060913,0.19330815970897675,-0.014959502965211868
0.7898179292678833,0.5818908214569092,0.19330547749996185,-0.014956703409552574
0.7898232936859131,0.5818877220153809,0.19329363107681274,-0.014948836527764797
0.7898046970367432,0.5819068551063538,0.19331154227256775,-0.014956997707486153
0.7897898554801941,0.5819175243377686,0.19333884119987488,-0.014974219724535942
0.7898060083389282,0.5818944573402405,0.19334116578102112,-0.014981899410486221
0.789787769317627,0.5819238424301147,0.1933286339044571,-0.014965133741497993
0.7897767424583435,0.5819361209869385,0.19333650171756744,-0.014967713505029678
0.7897560000419617,0.5819625854492188,0.19334246218204498,-0.014965225011110306
0.7897413969039917,0.5819807648658752,0.19334697723388672,-0.014963836409151554
0.7897354960441589,0.5819841623306274,0.19336023926734924,-0.014972668141126633
0.789712131023407,0.5820101499557495,0.19337715208530426,-0.01497832965105772
0.7897067666053772,0.582019567489624,0.19337068498134613,-0.01497116219252348
0.7897261381149292,0.5819898843765259,0.19337999820709229,-0.014985660091042519
0.7897197008132935,0.5819956660270691,0.1933891475200653,-0.01499085407704115
0.7897405624389648,0.5819714665412903,0.19337697327136993,-0.01498819887638092
0.7897436618804932,0.5819632411003113,0.19338759779930115,-0.014998110942542553
0.7897527813911438,0.5819451808929443,0.19340375065803528,-0.015014616772532463
0.7896010875701904,0.5821548104286194,0.19337984919548035,-0.015168264508247375
0.7896106839179993,0.5821430683135986,0.19337622821331024,-0.015168655663728714
0.7896136045455933,0.582140326499939,0.19337224960327148,-0.015166450291872025
0.7895534038543701,0.5822148323059082,0.19339494407176971,-0.01516377367079258
0.7895311713218689,0.5822376608848572,0.1934157907962799,-0.015173130668699741
0.7895063757896423,0.5822625756263733,0.19344064593315125,-0.015184896998107433
0.7895166277885437,0.5822481513023376,0.19344215095043182,-0.01518973894417286
0.7895058393478394,0.5822548866271973,0.19346484541893005,-0.01520461868494749
0.7894940376281738,0.5822670459747314,0.193476140499115,-0.015209748409688473
0.7894769310951233,0.5822900533676147,0.1934766322374344,-0.015204161405563354
0.7894731163978577,0.5823000073432922,0.1934640258550644,-0.015192348510026932
0.789466142654419,0.5823103785514832,0.1934610903263092,-0.015187514945864677
0.7894573211669922,0.5823192596435547,0.19347026944160461,-0.015191939659416676
0.7894609570503235,0.5823178887367249,0.19345973432064056,-0.015184590592980385
0.789467453956604,0.5823133587837219,0.19344767928123474,-0.01517694815993309
0.7894420623779297,0.5823500156402588,0.193442240357399,-0.015163466334342957
0.7894580960273743,0.5823277235031128,0.19344298541545868,-0.015169791877269745
0.7894360423088074,0.5823501944541931,0.19346532225608826,-0.015180335380136967
0.7894389033317566,0.5823347568511963,0.19349738955497742,-0.015207833610475063
0.7894083857536316,0.5823675394058228,0.19352203607559204,-0.015217402949929237
0.7893776297569275,0.5824007987976074,0.1935475766658783,-0.015227501280605793
0.7893688678741455,0.5824152827262878,0.19353999197483063,-0.015218200162053108
0.7893720865249634,0.5824041962623596,0.19355905055999756,-0.015235044993460178
0.7893621921539307,0.5824164748191833,0.19356219470500946,-0.015234176069498062
0.7893343567848206,0.5824452042579651,0.19358834624290466,-0.015245885588228703
0.7893186211585999,0.5824633836746216,0.1935979127883911,-0.015248192474246025
0.7893155217170715,0.5824711918830872,0.1935872733592987,-0.015238377265632153
0.7892992496490479,0.5824881196022034,0.19360296428203583,-0.015245486050844193
0.7893041372299194,0.5824704170227051,0.19363361597061157,-0.015272547490894794
0.7889684438705444,0.5828878879547119,0.19372832775115967,-0.015492758713662624
0.7882982492446899,0.5838848352432251,0.19345086812973022,-0.015526816248893738
0.7876726388931274,0.5849382877349854,0.19272975623607635,-0.016566885635256767
0.7870411276817322,0.586328387260437,0.1907726377248764,-0.01977696642279625
0.7880945801734924,0.5870200395584106,0.18378804624080658,-0.023163169622421265
0.7886317372322083,0.5873833894729614,0.18018344044685364,-0.023971883580088615
0.7895672917366028,0.585303544998169,0.18284614384174347,-0.023885754868388176
0.7922638058662415,0.581877589225769,0.1819494366645813,-0.025119518861174583
0.7971016764640808,0.5769223570823669,0.17561748623847961,-0.03079085610806942
0.7986014485359192,0.5768241286277771,0.16847680509090424,-0.03354240208864212
0.7974550127983093,0.5784159898757935,0.16858665645122528,-0.032847799360752106
0.7943248152732849,0.5796826481819153,0.17978723347187042,-0.02632138878107071
0.7918922901153564,0.5804948806762695,0.1882937252521515,-0.02185892127454281
0.7915226817131042,0.5815738439559937,0.1863572895526886,-0.023123489692807198
0.7921356558799744,0.5829400420188904,0.17889103293418884,-0.026458589360117912
0.7914685010910034,0.5842549800872803,0.1774558424949646,-0.027076618745923042
0.7905375361442566,0.5841171741485596,0.18238720297813416,-0.024343814700841904
0.7900401949882507,0.5834894180297852,0.1868385672569275,-0.021630410104990005
0.7909978628158569,0.5824052095413208,0.1862170249223709,-0.021211137995123863
0.7922534942626953,0.5815315246582031,0.1835123598575592,-0.021879181265830994
0.7932630777359009,0.5806746482849121,0.18190334737300873,-0.021487345919013023
0.7937995791435242,0.5794512629508972,0.1836429089307785,-0.019843289628624916
0.7941964268684387,0.5783429145812988,0.18556079268455505,-0.018404724076390266
0.7951340675354004,0.5773217082023621,0.18476082384586334,-0.018022771924734116
0.7960116267204285,0.5767009854316711,0.18290852010250092,-0.01805376075208187
0.7964352369308472,0.5764877200126648,0.18175917863845825,-0.01778896525502205
0.7963796257972717,0.5767225027084351,0.1813121736049652,-0.01722131483256817
0.7960371375083923,0.5772488117218018,0.1812065690755844,-0.0165199413895607
0.7955836057662964,0.5778951644897461,0.18115238845348358,-0.016364360228180885
0.7949519157409668,0.5790340900421143,0.18026235699653625,-0.016626033931970596
0.794272243976593,0.5801156759262085,0.179701030254364,-0.01746365614235401
0.793474018573761,0.5812546014785767,0.17940673232078552,-0.0188510213047266
0.7925045490264893,0.5828611850738525,0.1782398670911789,-0.020972926169633865
0.791915237903595,0.584183394908905,0.17622590065002441,-0.023336250334978104
0.7913310527801514,0.5849308371543884,0.17617267370224,-0.024786848574876785
0.7908704876899719,0.5853848457336426,0.17664273083209991,-0.025412043556571007
0.7907535433769226,0.5854318737983704,0.17690248787403107,-0.026151588186621666
0.7909747958183289,0.5849913358688354,0.17726121842861176,-0.02687852270901203
0.7910624146461487,0.5848163366317749,0.17736396193504333,-0.0274269450455904
0.7910061478614807,0.5848674178123474,0.17738430202007294,-0.027824416756629944
0.7910407781600952,0.584815502166748,0.17739726603031158,-0.027846863493323326
0.7909749746322632,0.5849375128746033,0.1772920936346054,-0.027825217694044113
0.790736198425293,0.5853080749511719,0.17712582647800446,-0.027879884466528893
0.7904254198074341,0.5858055353164673,0.17682220041751862,-0.0281686969101429
0.7901362776756287,0.586234986782074,0.17665483057498932,-0.028394073247909546
0.7898523807525635,0.5867301821708679,0.1762506514787674,-0.028578024357557297
0.7895934581756592,0.5872095227241516,0.1757640838623047,-0.028881166130304337
0.7894304394721985,0.5876750946044922,0.17490464448928833,-0.02908545546233654
0.7889403700828552,0.5882850885391235,0.17506644129753113,-0.029078824445605278
0.7884926795959473,0.5887300372123718,0.17558492720127106,-0.02908797189593315
0.788108229637146,0.5892833471298218,0.17545047402381897,-0.02911616489291191
0.7878335118293762,0.5897631049156189,0.1750422865152359,-0.029293512925505638
0.7874680757522583,0.5902152061462402,0.17514677345752716,-0.029389042407274246
0.787197470664978,0.5906193256378174,0.17503762245178223,-0.02916751429438591
0.7869479656219482,0.5910528302192688,0.1747283935546875,-0.028973884880542755
0.7868277430534363,0.5912895202636719,0.1744699776172638,-0.028966717422008514
0.7868074178695679,0.5913122892379761,0.17448385059833527,-0.028971340507268906
0.786928653717041,0.5911620259284973,0.1744207739830017,-0.02912360616028309
0.7869393825531006,0.5911568403244019,0.17433509230613708,-0.02945191226899624
0.786944568157196,0.5910484194755554,0.17462734878063202,-0.02975321374833584
0.7870110273361206,0.5908542275428772,0.17496252059936523,-0.02988484501838684
0.7870168089866638,0.5907317996025085,0.17529819905757904,-0.030181122943758965
0.7870885133743286,0.5905960202217102,0.17540466785430908,-0.03035503253340721
0.7870696187019348,0.5906088948249817,0.17544163763523102,-0.030379168689250946
0.7869848608970642,0.5906912684440613,0.17549622058868408,-0.030654404312372208
0.7869793772697449,0.5906897187232971,0.1755230873823166,-0.030674710869789124
0.7869451642036438,0.5907230973243713,0.1755603402853012,-0.0306938998401165
0.7866781949996948,0.5910224318504333,0.1757485419511795,-0.03069804608821869
0.7864030599594116,0.5913489460945129,0.17587818205356598,-0.030717065557837486
0.7859753370285034,0.5919716954231262,0.17568686604499817,-0.030766505748033524
0.7859370708465576,0.5920184254646301,0.17570054531097412,-0.030764862895011902
0.7859667539596558,0.5919356942176819,0.17587095499038696,-0.030623868107795715
0.7861040234565735,0.5916549563407898,0.1762256920337677,-0.030488068237900734
0.7861244082450867,0.5916246175765991,0.17623421549797058,-0.0305020771920681
0.7861182689666748,0.5916298627853394,0.17624317109584808,-0.0305074080824852
0.7861340045928955,0.5916221141815186,0.176203653216362,-0.030480017885565758
0.7861296534538269,0.5916276574134827,0.17620381712913513,-0.03047873079776764
0.7861292958259583,0.5916244387626648,0.17621541023254395,-0.03048817627131939
0.7861289978027344,0.5916240811347961,0.1762176752090454,-0.03048994019627571
0.7859577536582947,0.5918232202529907,0.17632941901683807,-0.030391870066523552
0.7857486605644226,0.5920109748840332,0.17665912210941315,-0.030229009687900543
0.7855379581451416,0.5921173095703125,0.17724475264549255,-0.030191786587238312
0.7853986024856567,0.5923777222633362,0.17698203027248383,-0.030248522758483887
0.7851951718330383,0.5927323698997498,0.1766432672739029,-0.03056255728006363
0.7848451733589172,0.5932354927062988,0.17646458745002747,-0.030822930857539177
0.7847115993499756,0.5934216380119324,0.1764029860496521,-0.030992433428764343
0.7846178412437439,0.5935987830162048,0.17621862888336182,-0.031022945418953896
0.7845909595489502,0.5936455130577087,0.17616117000579834,-0.03113175928592682
0.784316897392273,0.5939275026321411,0.17643512785434723,-0.0311112143099308
0.7840659022331238,0.5940766930580139,0.1770915389060974,-0.030857890844345093
0.783998966217041,0.5940850973129272,0.17739997804164886,-0.03062712401151657
0.783961832523346,0.5941397547721863,0.17738503217697144,-0.03060198575258255
0.7839654684066772,0.5941337943077087,0.177388533949852,-0.030606133863329887
0.7837929725646973,0.5942803621292114,0.1776869297027588,-0.03044287860393524
0.7835953235626221,0.5944620966911316,0.17798148095607758,-0.03026133030653
0.7835807204246521,0.5944787859916687,0.17798995971679688,-0.030263420194387436
0.7835134863853455,0.5946965217590332,0.17755717039108276,-0.030267387628555298
0.7836024761199951,0.5947695970535278,0.17692558467388153,-0.03022781014442444
0.7834562659263611,0.5950853824615479,0.17652614414691925,-0.030137859284877777
0.7832326292991638,0.5953936576843262,0.1764977127313614,-0.030024390667676926
0.7830869555473328,0.5955243706703186,0.176768496632576,-0.02964095212519169
0.7827640175819397,0.5957527756690979,0.17747463285923004,-0.02936028130352497
0.7824083566665649,0.5961925983428955,0.17758060991764069,-0.029269492253661156
0.7822678685188293,0.5964904427528381,0.17718318104743958,-0.029366426169872284
0.7821849584579468,0.5965156555175781,0.17747987806797028,-0.02927125245332718
0.7819098830223083,0.5967507362365723,0.1778857260942459,-0.029363714158535004
0.7818118333816528,0.596950888633728,0.17762520909309387,-0.029482662677764893
0.7817406058311462,0.5970367789268494,0.17765063047409058,-0.02947987988591194
0.7818761467933655,0.5967547297477722,0.17802871763706207,-0.02931329980492592
0.7819935083389282,0.5965702533721924,0.17813678085803986,-0.02928013727068901
0.7821950316429138,0.596362829208374,0.17794321477413177,-0.02930384874343872
0.7822823524475098,0.5962037444114685,0.17810441553592682,-0.029229678213596344
0.782511293888092,0.595779299736023,0.17853158712387085,-0.029147690162062645
0.7826686501502991,0.5955345630645752,0.17867225408554077,-0.02906329184770584
0.78266441822052,0.5955389142036438,0.17867611348628998,-0.029065079987049103
0.7826678156852722,0.5955307483673096,0.17868635058403015,-0.029074860736727715
0.7826727032661438,0.5955294370651245,0.1786712408065796,-0.029063839465379715
0.7826818823814392,0.5955178141593933,0.1786697804927826,-0.02906571887433529
0.7827689051628113,0.5953534841537476,0.1788453906774521,-0.029007717967033386
0.7828190326690674,0.5953735113143921,0.17854152619838715,-0.02911338582634926
0.7827472686767578,0.5955579280853271,0.17820823192596436,-0.02931283786892891
0.7825692892074585,0.5958397388458252,0.177994042634964,-0.029638977721333504
0.7827394008636475,0.5956611037254333,0.17779698967933655,-0.029916703701019287
0.7829492688179016,0.5953584909439087,0.1778816431760788,-0.029947934672236443
0.7828631401062012,0.5953342318534851,0.17831966280937195,-0.03007727488875389
0.7827973961830139,0.5953890681266785,0.1783910095691681,-0.030276622623205185
0.7827892303466797,0.5953574776649475,0.17849500477313995,-0.030497733503580093
0.7828013300895691,0.5953317880630493,0.1785227507352829,-0.03052516281604767
0.7827971577644348,0.5953324437141418,0.17853747308254242,-0.030536042526364326
0.782785177230835,0.5953523516654968,0.17852579057216644,-0.03052215650677681
0.7827988862991333,0.5953301191329956,0.17853716015815735,-0.030536411330103874
0.7827571034431458,0.5953826904296875,0.17854595184326172,-0.030529480427503586
0.78274005651474,0.5954000949859619,0.1785619705915451,-0.03053702786564827
0.7827282547950745,0.5954161286354065,0.17856094241142273,-0.030532129108905792
0.782755434513092,0.5953881144523621,0.17853695154190063,-0.030521336942911148
0.7827847599983215,0.5953555703163147,0.1785178780555725,-0.030515402555465698
0.7827786803245544,0.5953561663627625,0.17853954434394836,-0.030531499534845352
0.7826025485992432,0.5955734252929688,0.1785871684551239,-0.030530478805303574
0.7825678586959839,0.5956102609634399,0.17861491441726685,-0.03054184466600418
0.7825426459312439,0.5956315994262695,0.17865055799484253,-0.0305631160736084
0.7823877930641174,0.5958759188652039,0.17848390340805054,-0.030738957226276398
0.7823734283447266,0.59589684009552,0.17847825586795807,-0.030729323625564575
0.7823705077171326,0.5958240032196045,0.17875245213508606,-0.030625227838754654
0.7823628783226013,0.5958177447319031,0.17879514396190643,-0.03069033846259117
0.7825139760971069,0.5957871079444885,0.17820407450199127,-0.030870560556650162
0.7828227281570435,0.5955313444137573,0.17769046127796173,-0.030938802286982536
0.782974123954773,0.5952597856521606,0.17796483635902405,-0.03075743280351162
0.7829990386962891,0.5952361226081848,0.1779366433620453,-0.03074236400425434
0.7831246852874756,0.5951493978500366,0.17766427993774414,-0.030796747654676437
0.7831383347511292,0.595077395439148,0.1778540313243866,-0.030746983364224434
0.7829410433769226,0.5952547192573547,0.17815066874027252,-0.03061949834227562
0.7827831506729126,0.5953139066696167,0.17862547934055328,-0.03073771297931671
0.7826516032218933,0.5954468250274658,0.17876040935516357,-0.03072858229279518
0.7824339270591736,0.5958054065704346,0.17850719392299652,-0.03079705685377121
0.7821936011314392,0.5961936712265015,0.17826063930988312,-0.030814923346042633
0.7821692824363708,0.5963006615638733,0.17801710963249207,-0.030767563730478287
0.782151997089386,0.5963953733444214,0.17779195308685303,-0.03067631460726261
0.782221257686615,0.5964657664299011,0.177272766828537,-0.030543128028512
0.7822284698486328,0.5965332984924316,0.17705155909061432,-0.030319819226861
0.7824586629867554,0.5964062213897705,0.17651450634002686,-0.03001355193555355
0.7826075553894043,0.5963332653045654,0.17613382637500763,-0.02981458231806755
0.7826437950134277,0.5963128209114075,0.17603568732738495,-0.029851268976926804
0.7828958630561829,0.5959945321083069,0.17597414553165436,-0.029963459819555283
0.7830268740653992,0.5958534479141235,0.17581193149089813,-0.030294135212898254
0.7830181121826172,0.5958483815193176,0.17586162686347961,-0.030332759022712708
0.7830931544303894,0.5957229137420654,0.17594538629055023,-0.03037562035024166
0.7834628224372864,0.5952677726745605,0.17580543458461761,-0.030574973672628403
0.7840770483016968,0.5947278738021851,0.17481906712055206,-0.030989939346909523
0.7843193411827087,0.5946542620658875,0.1739238053560257,-0.031307853758335114
0.7843382954597473,0.5946571230888367,0.17383860051631927,-0.031249970197677612
0.7840723395347595,0.5950039625167847,0.173909991979599,-0.030923716723918915
0.7839335203170776,0.5950547456741333,0.1744009256362915,-0.030700597912073135
0.784091591835022,0.5947789549827576,0.1746707260608673,-0.030471477657556534
0.7839699387550354,0.5949099063873291,0.1747804880142212,-0.03041587769985199
0.783708393573761,0.5953629016876221,0.1744222640991211,-0.030350932851433754
0.7834188342094421,0.5959458947181702,0.1737484335899353,-0.03024740144610405
0.7834133505821228,0.5959520936012268,0.17375202476978302,-0.030248548835515976
0.7835655212402344,0.5957143306732178,0.17388959228992462,-0.030199840664863586
0.7835665345191956,0.595714807510376,0.1738840937614441,-0.030195612460374832
0.7836101055145264,0.5956979393959045,0.17372773587703705,-0.03029828891158104
0.7833234667778015,0.596088707447052,0.17365671694278717,-0.030428562313318253
0.7832782864570618,0.5960597991943359,0.17392118275165558,-0.030650680884718895
0.7835744023323059,0.5955888032913208,0.17417120933532715,-0.030813924968242645
0.7836891412734985,0.5953004360198975,0.17456349730491638,-0.031247200444340706
0.7837463021278381,0.5951687097549438,0.17465350031852722,-0.031811609864234924
0.7837335467338562,0.5950818657875061,0.1749483346939087,-0.032133106142282486
0.7836668491363525,0.5949209332466125,0.17580509185791016,-0.032061513513326645
0.7835730314254761,0.5947887897491455,0.17660702764987946,-0.0323978029191494
0.7835660576820374,0.5949253439903259,0.1759711652994156,-0.033498261123895645
0.7837669253349304,0.5952897667884827,0.1736471951007843,-0.034441929310560226
0.783552348613739,0.5954267382621765,0.17420192062854767,-0.03415525704622269
0.7834076285362244,0.5951847434043884,0.17583619058132172,-0.03330864757299423
0.7834839224815369,0.5950166583061218,0.1761380285024643,-0.032918576151132584
0.7835490107536316,0.5950825810432434,0.1756778508424759,-0.03263449668884277
0.7835313677787781,0.5950773358345032,0.1758345067501068,-0.032309114933013916
0.7835357785224915,0.5950852632522583,0.17579376697540283,-0.03227657824754715
0.7835094332695007,0.5951228141784668,0.17578665912151337,-0.032261669635772705
0.7836421728134155,0.5949022769927979,0.17592525482177734,-0.032352548092603683
0.7836278080940247,0.5947468280792236,0.17655235528945923,-0.03213978931307793
0.783454418182373,0.5948439836502075,0.17704589664936066,-0.0318523533642292
0.7834514379501343,0.5948584675788879,0.17701542377471924,-0.031825821846723557
0.7834606170654297,0.5948421955108643,0.1770269274711609,-0.031838610768318176
0.783516526222229,0.5948090553283691,0.17693284153938293,-0.031603481620550156
0.7833797931671143,0.5949596762657166,0.17708173394203186,-0.031322795897722244
0.7831087708473206,0.5952599048614502,0.17730991542339325,-0.03110518306493759
0.7831117510795593,0.5952568650245667,0.1773070991039276,-0.031103845685720444
0.7831093668937683,0.59526127576828,0.1773034930229187,-0.031100019812583923
0.783114492893219,0.5952576994895935,0.17729394137859344,-0.031093774363398552
0.7830276489257812,0.5953236818313599,0.1774672269821167,-0.031030701473355293
0.7829809188842773,0.5953800082206726,0.177484929561615,-0.031029552221298218
0.7829405069351196,0.5954301357269287,0.1774953156709671,-0.03102448210120201
0.7828859090805054,0.5954931378364563,0.17752401530742645,-0.03102986328303814
0.7828927040100098,0.5954777598381042,0.1775427609682083,-0.0310478825122118
0.7828129529953003,0.5956694483757019,0.17726312577724457,-0.0309787318110466
0.7827972769737244,0.5956819653511047,0.17728738486766815,-0.030993741005659103
0.7827062606811523,0.5957279205322266,0.17755691707134247,-0.030866995453834534
0.7827664017677307,0.5955613255500793,0.17788073420524597,-0.03069356456398964
0.782646656036377,0.595629096031189,0.17820093035697937,-0.030573423951864243
0.7825405597686768,0.5958526134490967,0.17791475355625153,-0.03060023859143257
0.7825583219528198,0.5958487391471863,0.17782247066497803,-0.030754761770367622
0.7824831604957581,0.595872700214386,0.17810562252998352,-0.030567511916160583
0.782569408416748,0.5955798029899597,0.1787293553352356,-0.030424097552895546
0.7826004028320312,0.595525324344635,0.1788024753332138,-0.030267244204878807
0.7825605869293213,0.595573365688324,0.17881637811660767,-0.030265305191278458
0.7825644016265869,0.5955698490142822,0.17881201207637787,-0.030262932181358337
0.7825173139572144,0.5956245064735413,0.17883554100990295,-0.030266528949141502
0.7824896574020386,0.5956560373306274,0.17885100841522217,-0.03027002140879631
0.7825048565864563,0.5956318378448486,0.17886263132095337,-0.03028498776257038
0.7823330760002136,0.5958968997001648,0.1787126362323761,-0.030390793457627296
0.7822347283363342,0.5962079167366028,0.17806749045848846,-0.030609149485826492
0.7821550369262695,0.5963982343673706,0.17775408923625946,-0.030756879597902298
0.7821918725967407,0.5963950753211975,0.17760299146175385,-0.03075573220849037
0.7821944355964661,0.5964486002922058,0.17739248275756836,-0.03086934983730316
0.782180666923523,0.5966850519180298,0.17664679884910583,-0.030922718346118927
0.7821206450462341,0.5969250798225403,0.17608538269996643,-0.031012404710054398
0.7820800542831421,0.5969845056533813,0.17606902122497559,-0.030984923243522644
0.7822456359863281,0.596714198589325,0.17626549303531647,-0.030892841517925262
0.7823148369789124,0.5965721607208252,0.17645813524723053,-0.030787436291575432
0.7823197841644287,0.5965569615364075,0.1764831244945526,-0.030810123309493065
0.7823485732078552,0.596579372882843,0.1762562394142151,-0.030945295467972755
0.7823535203933716,0.5965678691864014,0.1762707531452179,-0.030959147959947586
0.782241702079773,0.5966281890869141,0.17659635841846466,-0.030762895941734314
0.7823933959007263,0.5963452458381653,0.17689506709575653,-0.030679646879434586
0.7826337814331055,0.5960347056388855,0.17690841853618622,-0.03050195798277855
0.7826426029205322,0.5960201621055603,0.1769167184829712,-0.03051191382110119
0.7825060486793518,0.5962383151054382,0.1767699420452118,-0.030603943392634392
0.7825096845626831,0.5963802337646484,0.17624323070049286,-0.03078082576394081
0.782518208026886,0.5963530540466309,0.17629064619541168,-0.03082342818379402
0.7825021147727966,0.5963650941848755,0.17631790041923523,-0.030840858817100525
0.7825068235397339,0.5963584780693054,0.17631912231445312,-0.030843466520309448
0.7825083136558533,0.5964425802230835,0.17601335048675537,-0.030923187732696533
0.7825053334236145,0.5964540839195251,0.17599119246006012,-0.03090360388159752
0.7824200391769409,0.5964892506599426,0.17629916965961456,-0.0306271780282259
0.7823765873908997,0.5964857935905457,0.17652861773967743,-0.030482448637485504
0.7820954918861389,0.5968928933143616,0.17635168135166168,-0.030752137303352356
0.7821230888366699,0.5971754193305969,0.1751091480255127,-0.0316527783870697
0.7820351123809814,0.5977661609649658,0.17315584421157837,-0.033375855535268784
0.7820285558700562,0.598177433013916,0.17136310040950775,-0.035353902727365494
0.7818779945373535,0.5983045101165771,0.17124028503894806,-0.03708749637007713
0.7809862494468689,0.5993738174438477,0.17154772579669952,-0.03718988597393036
0.7799396514892578,0.6004596948623657,0.17262448370456696,-0.036649297922849655
0.7786744832992554,0.6018649935722351,0.17361018061637878,-0.03583463653922081
0.7778608798980713,0.6029340028762817,0.1736523061990738,-0.0353267639875412
0.7775349020957947,0.6032945513725281,0.17392414808273315,-0.03500797599554062
0.7774491310119629,0.6030316948890686,0.1753222644329071,-0.03446390479803085
0.7776918411254883,0.6022549271583557,0.17708025872707367,-0.0335722416639328
0.7775138020515442,0.6021690368652344,0.17813357710838318,-0.03366246446967125
0.7771151661872864,0.6022881269454956,0.17949609458446503,-0.03349970281124115
0.7765488624572754,0.6021677255630493,0.1824197620153427,-0.03299834579229355
0.7762261033058167,0.6018025875091553,0.18517573177814484,-0.031883563846349716
0.7768546342849731,0.6010499000549316,0.18501806259155273,-0.03169245645403862
0.7777054905891418,0.6005133390426636,0.18305052816867828,-0.03240835294127464
0.778091549873352,0.6002078652381897,0.18245390057563782,-0.0321655236184597
0.7784720063209534,0.5996019244194031,0.18300184607505798,-0.0311307143419981
0.7788665294647217,0.5989775061607361,0.18355949223041534,-0.029982347041368484
0.7791114449501038,0.5982508063316345,0.18514348566532135,-0.028339918702840805
0.7791932821273804,0.5974786877632141,0.18753646314144135,-0.026593662798404694
0.7793505787849426,0.5968229174613953,0.18911050260066986,-0.02554040029644966
0.7796577215194702,0.596184492111206,0.1899055689573288,-0.02517356537282467
0.7802591323852539,0.5954583287239075,0.18975912034511566,-0.02483493834733963
0.7809839844703674,0.5946212410926819,0.18940842151641846,-0.024782612919807434
0.781528115272522,0.5938632488250732,0.1895553022623062,-0.024680964648723602
0.78180992603302,0.5931587815284729,0.19063659012317657,-0.024367254227399826
0.7817420959472656,0.5927520394325256,0.1922246366739273,-0.02396140806376934
0.7814207077026367,0.5926740169525146,0.19380033016204834,-0.02367744781076908
0.7815156579017639,0.5922817587852478,0.1946524828672409,-0.023365812376141548
0.7814233303070068,0.5920739769935608,0.19569425284862518,-0.023019105195999146
0.7812727093696594,0.591651976108551,0.1976395547389984,-0.022348621860146523
0.7811745405197144,0.5909181237220764,0.20021753013134003,-0.022249363362789154
0.7808986306190491,0.5906452536582947,0.20199505984783173,-0.02310032770037651
0.780443012714386,0.5911062359809875,0.202263742685318,-0.0243236031383276
0.7803919315338135,0.5915629267692566,0.2009524405002594,-0.025689885020256042
0.7804407477378845,0.5921512842178345,0.19893130660057068,-0.026371249929070473
0.7805014252662659,0.5925579071044922,0.19752106070518494,-0.02603936940431595
0.7806689143180847,0.5924298763275146,0.1973414570093155,-0.02528202533721924
0.7805670499801636,0.5924409627914429,0.19777998328208923,-0.024734940379858017
0.7806603908538818,0.5924044251441956,0.19751393795013428,-0.02479557879269123
0.7806487679481506,0.5926612019538879,0.19672530889511108,-0.02528662234544754
0.7806666493415833,0.592880368232727,0.19594024121761322,-0.025687722489237785
0.7803610563278198,0.593349814414978,0.1957460641860962,-0.02561342343688011
0.7800941467285156,0.593565821647644,0.19620811939239502,-0.02520325407385826
0.7799205183982849,0.5936571359634399,0.19665919244289398,-0.024908583611249924
0.7798875570297241,0.593686580657959,0.19669796526432037,-0.024929627776145935
0.7797930240631104,0.5938951373100281,0.19640369713306427,-0.025239311158657074
0.7797518968582153,0.5940449237823486,0.1960548609495163,-0.02569383755326271
0.7797421813011169,0.5940840244293213,0.19593462347984314,-0.025997735559940338
0.7797420024871826,0.5940805077552795,0.19594478607177734,-0.026006367057561874
0.7796484231948853,0.5941001772880554,0.19624704122543335,-0.026084555312991142
0.7794782519340515,0.5942064523696899,0.19658640027046204,-0.02619478479027748
0.7794306874275208,0.5941438674926758,0.19692480564117432,-0.02648628130555153
0.77946937084198,0.594071626663208,0.19694723188877106,-0.0267989132553339
0.7795380353927612,0.5940959453582764,0.1965574324131012,-0.027124233543872833
0.7795655727386475,0.5942232012748718,0.19601711630821228,-0.027454152703285217
0.7794180512428284,0.594508707523346,0.195717453956604,-0.02759663574397564
0.7793010473251343,0.5946361422538757,0.1958196610212326,-0.02743370085954666
0.7791838049888611,0.5946572422981262,0.1962532252073288,-0.027204269543290138
0.7791701555252075,0.5945599675178528,0.19660982489585876,-0.027144629508256912
0.7791706919670105,0.5945558547973633,0.19661970436573029,-0.027153227478265762
0.7791542410850525,0.5946654081344604,0.19630585610866547,-0.02749248594045639
0.7792071104049683,0.5947057008743286,0.1959352195262909,-0.027763409540057182
0.7792249917984009,0.5946847200393677,0.1959274858236313,-0.027763426303863525
0.7792068719863892,0.594706118106842,0.19593504071235657,-0.027763167396187782
0.7791848182678223,0.5947245359420776,0.19596460461616516,-0.027780305594205856
0.7791531085968018,0.5947529673576355,0.1960010975599289,-0.027799885720014572
0.7791439294815063,0.594760000705719,0.19601528346538544,-0.027808623388409615
0.7790487408638,0.5948973298072815,0.19594356417655945,-0.028041347861289978
0.7791029810905457,0.5948370099067688,0.195870503783226,-0.02832195907831192
0.7791246771812439,0.5948139429092407,0.195855051279068,-0.028316758573055267
0.7791095972061157,0.5948296189308167,0.19586682319641113,-0.028321266174316406
0.7791003584861755,0.5948321223258972,0.1958930790424347,-0.028340358287096024
0.7790831923484802,0.5948430299758911,0.19592522084712982,-0.02836153656244278
0.7790700197219849,0.5948603749275208,0.19592605531215668,-0.028357326984405518
0.7790759801864624,0.5948558449745178,0.19591692090034485,-0.028351712971925735
0.7790377140045166,0.5948932766914368,0.1959531009197235,-0.028368543833494186
0.7790389657020569,0.5948905944824219,0.19595585763454437,-0.028371378779411316
0.7790057063102722,0.594933807849884,0.19595812261104584,-0.028361041098833084
0.7789778113365173,0.5949140191078186,0.19614090025424957,-0.028280038386583328
0.7789459824562073,0.5948286056518555,0.19653905928134918,-0.028186656534671783
0.7789441347122192,0.5948218703269958,0.19656383991241455,-0.028207220137119293
0.7789682745933533,0.5948398113250732,0.19639109075069427,-0.028364799916744232
0.779103696346283,0.5947247743606567,0.1961657851934433,-0.02861599624156952
0.7790927886962891,0.5947364568710327,0.19617325067520142,-0.028618354350328445
0.7791821956634521,0.5945386290550232,0.19641299545764923,-0.028650032356381416
0.7791549563407898,0.5945616960525513,0.19644834101200104,-0.028670193627476692
0.7791578769683838,0.594556450843811,0.1964520364999771,-0.028674457222223282
0.7791363596916199,0.5945813059806824,0.19646194577217102,-0.02867496944963932
0.7791258096694946,0.5945972204208374,0.1964574158191681,-0.028667118400335312
0.7792308330535889,0.5944229960441589,0.19659338891506195,-0.028491321951150894
0.7792686223983765,0.5942803621292114,0.19691063463687897,-0.028240565210580826
0.7792302370071411,0.5942676067352295,0.1971086710691452,-0.028187360614538193
0.7793411016464233,0.5941773056983948,0.19693231582641602,-0.028257708996534348
0.7794530391693115,0.5940873026847839,0.19675415754318237,-0.02830313891172409
0.7795703411102295,0.5938907861709595,0.19688472151756287,-0.02828884869813919
0.7796854972839355,0.593711793422699,0.19698210060596466,-0.028194263577461243
0.7797926664352417,0.5935605764389038,0.19701841473579407,-0.028158213943243027
0.7798882126808167,0.5934558510780334,0.19696713984012604,-0.028079159557819366
0.7800503969192505,0.5931732058525085,0.19717469811439514,-0.02809128537774086
0.7801715731620789,0.5929581522941589,0.19734203815460205,-0.028091827407479286
0.7801969647407532,0.5929288864135742,0.1973298192024231,-0.02809087559580803
0.7801355719566345,0.5930449366569519,0.19720518589019775,-0.028221700340509415
0.7801440954208374,0.5930362343788147,0.1971980482339859,-0.028218774124979973
0.7801148295402527,0.5930641889572144,0.1972278207540512,-0.028233271092176437
0.780113935470581,0.593055784702301,0.1972530335187912,-0.028254520148038864
0.7801496982574463,0.5930553078651428,0.19709067046642303,-0.028413597494363785
0.7801631093025208,0.5931059718132019,0.19686222076416016,-0.028568007051944733
0.7801624536514282,0.5931418538093567,0.1967226266860962,-0.028801612555980682
0.7801604866981506,0.5931434035301208,0.19672542810440063,-0.028803281486034393
0.7801579833030701,0.5931395292282104,0.1967451125383377,-0.02881912887096405
0.7801370024681091,0.5931596159934998,0.196766197681427,-0.028829319402575493
0.7801293730735779,0.5931708812713623,0.19676296412944794,-0.0288237314671278
0.7800974249839783,0.5932074785232544,0.19677956402301788,-0.028825946152210236
0.7800862193107605,0.5932139754295349,0.19680196046829224,-0.02884092926979065
0.7800601720809937,0.5932362675666809,0.1968352049589157,-0.028859630227088928
0.7800387144088745,0.5932501554489136,0.1968744993209839,-0.02888523042201996
0.7801460027694702,0.5932161211967468,0.19654381275177002,-0.02893800660967827
0.7801494598388672,0.5932146310806274,0.19653598964214325,-0.028932560235261917
0.7802702188491821,0.5930851101875305,0.1964782178401947,-0.028718678280711174
0.7803821563720703,0.5929481983184814,0.19647839665412903,-0.028499724343419075
0.7804811596870422,0.5926886796951294,0.19689901173114777,-0.028286242857575417
0.7804723381996155,0.5926858186721802,0.19693806767463684,-0.028316304087638855
0.7805137634277344,0.5927135944366455,0.19664110243320465,-0.028658244758844376
0.780415952205658,0.5930314064025879,0.19603364169597626,-0.028907623142004013
0.7804708480834961,0.5930713415145874,0.19568660855293274,-0.028956349939107895
0.7803868055343628,0.5931220054626465,0.19589127600193024,-0.028800811618566513
0.7802537679672241,0.5931473970413208,0.19638332724571228,-0.028527703136205673
0.7801802158355713,0.593147337436676,0.19668129086494446,-0.02848948910832405
0.7801671028137207,0.5931647419929504,0.1966812014579773,-0.02848455309867859
0.7800939083099365,0.5932540893554688,0.19666747748851776,-0.028724798932671547
0.7800645232200623,0.593288004398346,0.1966812163591385,-0.02872563526034355
0.7800607085227966,0.593289315700531,0.19669146835803986,-0.02873295545578003
0.7800454497337341,0.5933100581169128,0.19669048488140106,-0.02872641384601593
0.7800346612930298,0.5933240652084351,0.19669154286384583,-0.028723284602165222
0.7800201773643494,0.5933429002761841,0.19669285416603088,-0.028718994930386543
0.7800034880638123,0.593360960483551,0.19670365750789642,-0.028722044080495834
0.7800103425979614,0.5933531522750854,0.19670040905475616,-0.028721801936626434
0.7800168991088867,0.5933360457420349,0.19672298431396484,-0.02874353900551796
0.7800065875053406,0.5933439135551453,0.19673827290534973,-0.02875281125307083
0.7800195813179016,0.5933341383934021,0.1967182159423828,-0.028740502893924713
0.7799962162971497,0.5933642983436584,0.19672101736068726,-0.02873416617512703
0.7799728512763977,0.5933802723884583,0.1967613399028778,-0.028759967535734177
0.7799549102783203,0.5934072136878967,0.19675344228744507,-0.028746504336595535
0.779930830001831,0.5934317111968994,0.1967739760875702,-0.028755061328411102
0.77992182970047,0.5934524536132812,0.1967501938343048,-0.028731416910886765
0.7798974514007568,0.5934826135635376,0.19675610959529877,-0.028727427124977112
0.7798762917518616,0.5935046076774597,0.1967734396457672,-0.028734274208545685
0.7798413038253784,0.5935413837432861,0.19679951667785645,-0.02874356135725975
0.7798429131507874,0.5935419797897339,0.1967923641204834,-0.028738031163811684
0.7798498272895813,0.5935326814651489,0.1967921108007431,-0.028740447014570236
0.7798323631286621,0.5935513973236084,0.19680452346801758,-0.028744541108608246
0.779832124710083,0.5935443043708801,0.1968245804309845,-0.02876158058643341
0.7798265814781189,0.593548059463501,0.19683384895324707,-0.028767498210072517
0.7798383235931396,0.5935276746749878,0.1968468278646469,-0.028782961890101433
0.7798482775688171,0.5935172438621521,0.19683943688869476,-0.028780341148376465
0.7798313498497009,0.5935301780700684,0.1968647688627243,-0.028795745223760605
0.7798253297805786,0.593534529209137,0.19687479734420776,-0.028802067041397095
0.7798370122909546,0.593527615070343,0.19685135781764984,-0.028786417096853256
0.7798280119895935,0.5935425162315369,0.19684380292892456,-0.028776567429304123
0.7798394560813904,0.5935322046279907,0.19683070480823517,-0.02876961976289749
0.7798252701759338,0.5935495495796204,0.19683457911014557,-0.028767678886651993
0.7797880172729492,0.5935899615287781,0.19685949385166168,-0.028775062412023544
0.7797656059265137,0.5936152935028076,0.19687175750732422,-0.02877718210220337
0.7797569036483765,0.5936177372932434,0.1968958079814911,-0.02879456803202629
0.7797405123710632,0.5936327576637268,0.19691437482833862,-0.028804317116737366
0.7797304391860962,0.5936395525932312,0.19693225622177124,-0.028815843164920807
0.7797235250473022,0.5936455130577087,0.19694103300571442,-0.02882075309753418
0.7797048687934875,0.5936629176139832,0.19696062803268433,-0.028830602765083313
0.7797185778617859,0.5936393737792969,0.1969749927520752,-0.02884799614548683
0.7797070145606995,0.5936508178710938,0.19698525965213776,-0.02885250188410282
0.7797060012817383,0.5936467051506042,0.19700005650520325,-0.028864774852991104
0.7796870470046997,0.5936691164970398,0.19700779020786285,-0.028864305466413498
0.7796760201454163,0.5936778783798218,0.19702328741550446,-0.028873492032289505
0.7796904444694519,0.593694269657135,0.19694367051124573,-0.02869230881333351
0.7798290848731995,0.5935767889022827,0.1967761069536209,-0.02850337326526642
0.7799131274223328,0.5935050249099731,0.19668282568454742,-0.028340213000774384
0.7799872159957886,0.5934708118438721,0.19651462137699127,-0.028186019510030746
0.7799791097640991,0.5934827923774719,0.19651170074939728,-0.028180493041872978
0.7799714207649231,0.5934908390045166,0.1965169757604599,-0.028182197362184525
0.7799904346466064,0.5934697985649109,0.19650578498840332,-0.028179675340652466
0.7800182104110718,0.5934351682662964,0.196499302983284,-0.028184479102492332
0.7800197005271912,0.5934308767318726,0.19650571048259735,-0.028190480545163155
0.7800431847572327,0.5934003591537476,0.19650326669216156,-0.028197167441248894
0.7800374031066895,0.5934008955955505,0.19652286171913147,-0.028211724013090134
0.7800332903862,0.5933923125267029,0.19656050205230713,-0.028242390602827072
0.7800216674804688,0.5934049487113953,0.19656844437122345,-0.028244823217391968
0.780017614364624,0.5934045314788818,0.19658397138118744,-0.028256604447960854
0.7800227403640747,0.5933965444564819,0.19658684730529785,-0.028261002153158188
0.780009925365448,0.5934110879898071,0.1965934783220291,-0.02826192043721676
0.7799902558326721,0.593444287776947,0.19657520949840546,-0.028238948434591293
0.7799871563911438,0.5934454202651978,0.19658292829990387,-0.02824442833662033
0.779963493347168,0.5934706330299377,0.19659973680973053,-0.028250018134713173
0.779939591884613,0.5934990644454956,0.19660931825637817,-0.028249278664588928
0.7799427509307861,0.5934980511665344,0.19660043716430664,-0.02824290096759796
0.7799389958381653,0.5935063362121582,0.19659146666526794,-0.028233859688043594
0.7799382209777832,0.5935052633285522,0.19659751653671265,-0.028238706290721893
0.7799386382102966,0.5935019850730896,0.19660456478595734,-0.028244923800230026
0.7799304127693176,0.5935167670249939,0.19659410417079926,-0.028232956305146217
0.7799184918403625,0.5935322642326355,0.19659553468227386,-0.028229717165231705
0.779940664768219,0.5935019850730896,0.19659727811813354,-0.028239484876394272
0.7799486517906189,0.5934926271438599,0.19659419357776642,-0.028239790350198746
0.7799680233001709,0.5934690833091736,0.1965879201889038,-0.028241664171218872
0.7799868583679199,0.593450129032135,0.19657117128372192,-0.02823437936604023
0.7799845933914185,0.5934478044509888,0.19658593833446503,-0.02824612706899643
0.7799650430679321,0.5934712290763855,0.19659259915351868,-0.028244588524103165
0.7799569964408875,0.5934813022613525,0.19659455120563507,-0.02824324369430542
0.7799555063247681,0.5934810638427734,0.1966002881526947,-0.02824762836098671
0.7799448370933533,0.5934925079345703,0.1966075599193573,-0.028249893337488174
0.7799388766288757,0.5935013890266418,0.1966053545475006,-0.02824576385319233
0.7799472808837891,0.593483567237854,0.19662363827228546,-0.028264466673135757
0.7799537181854248,0.5934723615646362,0.19663017988204956,-0.028272505849599838
0.7799147367477417,0.5935156941413879,0.19665300846099854,-0.028277555480599403
0.7799021005630493,0.5935351848602295,0.19664610922336578,-0.028266940265893936
0.7798714637756348,0.5935700535774231,0.1966618001461029,-0.02826898731291294
0.7798681259155273,0.5935731530189514,0.19666582345962524,-0.028271149843931198
0.7798609733581543,0.5935776829719543,0.19667890667915344,-0.02827971801161766
0.7798433303833008,0.5935943722724915,0.19669750332832336,-0.02828902378678322
0.7798593044281006,0.5935752987861633,0.1966913640499115,-0.02828974649310112
0.7798706293106079,0.5935579538345337,0.19669732451438904,-0.028299085795879364
0.7798793315887451,0.5935419201850891,0.1967097371816635,-0.028312895447015762
0.7798928618431091,0.5935262441635132,0.19670332968235016,-0.028312474489212036
0.779901921749115,0.5935178995132446,0.19669364392757416,-0.028307531028985977
0.7798933386802673,0.5935298800468445,0.19669191539287567,-0.02830289490520954
0.7799017429351807,0.5935221910476685,0.19668221473693848,-0.028297774493694305
0.7798815965652466,0.5935536026954651,0.19667021930217743,-0.02827998250722885
0.7798365354537964,0.5936067700386047,0.19668832421302795,-0.028278732672333717
0.779839038848877,0.5936000347137451,0.19669732451438904,-0.028287384659051895
0.7798367738723755,0.5936115980148315,0.19667470455169678,-0.028267160058021545
0.779815673828125,0.5936389565467834,0.1966766119003296,-0.028260961174964905
0.7798010110855103,0.5936540365219116,0.19668829441070557,-0.028265532106161118
0.7796908617019653,0.5936868786811829,0.1969982385635376,-0.028457030653953552
0.7796902656555176,0.5936798453330994,0.19701910018920898,-0.02847466990351677
0.779662013053894,0.5937057733535767,0.19705094397068024,-0.02849132940173149
0.7796381711959839,0.5937354564666748,0.19705627858638763,-0.02848702296614647
0.7796097993850708,0.5937631130218506,0.1970832645893097,-0.028499547392129898
0.7795997262001038,0.5937746167182922,0.19708818197250366,-0.028500013053417206
0.7795812487602234,0.5937969088554382,0.19709432125091553,-0.02849838137626648
0.7795681357383728,0.5938080549240112,0.19711165130138397,-0.028508272022008896
0.7795316576957703,0.5938528180122375,0.19712160527706146,-0.02850320190191269
0.7795397639274597,0.593840479850769,0.1971256136894226,-0.028509676456451416
0.7795242071151733,0.5938647985458374,0.1971164047718048,-0.028495941311120987
0.7795056700706482,0.5938932299613953,0.1971055418252945,-0.028479812666773796
0.7795053124427795,0.5938935875892639,0.19710636138916016,-0.02848033234477043
0.7794843912124634,0.5939197540283203,0.19711077213287354,-0.028476320207118988
0.7794921398162842,0.5939067602157593,0.1971178650856018,-0.02848529815673828
0.7794976830482483,0.5939003825187683,0.1971149742603302,-0.02848491072654724
0.7794990539550781,0.5939040184020996,0.19710072875022888,-0.028473183512687683
0.7794729471206665,0.5939286947250366,0.19712752103805542,-0.028486408293247223
0.7794696092605591,0.5939286351203918,0.19713951647281647,-0.02849544584751129
0.7794524431228638,0.593953549861908,0.19713380932807922,-0.028484173119068146
0.7794435024261475,0.5939639210700989,0.19713827967643738,-0.02848462387919426
0.779427707195282,0.593988299369812,0.197128564119339,-0.028470482677221298
0.7794212102890015,0.5940083861351013,0.19709834456443787,-0.028442129492759705
0.7792872786521912,0.5941048264503479,0.19734257459640503,-0.028403550386428833
0.7792881727218628,0.5939735770225525,0.19774191081523895,-0.028348229825496674
0.7793026566505432,0.5939484238624573,0.19775715470314026,-0.02836676314473152
0.7790196537971497,0.5942159295082092,0.1979944258928299,-0.02888159081339836
0.7784689664840698,0.595003604888916,0.19761788845062256,-0.03006630949676037
0.7771410346031189,0.5969727039337158,0.19668647646903992,-0.031461119651794434
0.7763873338699341,0.598386287689209,0.19504889845848083,-0.03335423395037651
0.7775147557258606,0.5981799960136414,0.1904747486114502,-0.037025563418865204
0.7791672348976135,0.5977762341499329,0.18376949429512024,-0.04231715202331543
0.7792062759399414,0.5986053347587585,0.18039284646511078,-0.04435746744275093
0.7790451645851135,0.5983927845954895,0.18251550197601318,-0.04126691073179245
0.7792301774024963,0.5970190167427063,0.1867307424545288,-0.03873433545231819
0.7798863649368286,0.5958284139633179,0.1874658763408661,-0.04027685523033142
0.7801525592803955,0.596687376499176,0.182797372341156,-0.04371824488043785
0.7799321413040161,0.5981991291046143,0.17791983485221863,-0.046992938965559006
0.779159665107727,0.5995944142341614,0.1767294853925705,-0.04651373624801636
0.777913510799408,0.6000729203224182,0.1811792105436325,-0.04401276260614395
0.7769865989685059,0.6001240015029907,0.18524505198001862,-0.04274790361523628
0.7764580845832825,0.6011930704116821,0.18369503319263458,-0.04399992153048515
0.7760961651802063,0.6023784875869751,0.18081527948379517,-0.04605301097035408
0.7762527465820312,0.6026467084884644,0.17887380719184875,-0.04746468365192413
0.7765124440193176,0.6025640368461609,0.17787231504917145,-0.048027154058218
0.7765020132064819,0.6026615500450134,0.17749442160129547,-0.04836857318878174
0.7765654921531677,0.6028737425804138,0.17652378976345062,-0.04825599119067192
0.7767578363418579,0.6027566194534302,0.17626239359378815,-0.04757404327392578
0.7769404053688049,0.6021876931190491,0.1776474416255951,-0.04663706570863724
0.777756929397583,0.6009559035301208,0.1781993955373764,-0.04681042954325676
0.7784433364868164,0.6002474427223206,0.17733430862426758,-0.04776490479707718
0.7789554595947266,0.5999678373336792,0.17582260072231293,-0.048512425273656845
0.7788646221160889,0.6000117659568787,0.1759718656539917,-0.048885367810726166
0.7788437008857727,0.5996168851852417,0.17752598226070404,-0.04844113066792488
0.778730034828186,0.5993459224700928,0.17893081903457642,-0.048453301191329956
0.7784128189086914,0.599676251411438,0.17911012470722198,-0.048799775540828705
0.7782726287841797,0.599800705909729,0.17914751172065735,-0.049367040395736694
0.7779345512390137,0.6000844240188599,0.17970634996891022,-0.049215465784072876
0.7778730988502502,0.5999953746795654,0.18022507429122925,-0.04937721788883209
0.7776167988777161,0.6001729965209961,0.1806388646364212,-0.04973984882235527
0.7774296402931213,0.6003918647766113,0.1806933581829071,-0.04982534423470497
0.7772814035415649,0.6004929542541504,0.18102462589740753,-0.04971978813409805
0.7771259546279907,0.6006583571434021,0.18123432993888855,-0.049385201185941696
0.7771007418632507,0.600691020488739,0.18123656511306763,-0.04937770590186119
0.777281641960144,0.6006258130073547,0.18062756955623627,-0.04955381155014038
0.7774753570556641,0.6005463004112244,0.1800200343132019,-0.049690160900354385
0.777472734451294,0.600551187992096,0.18001613020896912,-0.04968583956360817
0.7774975299835205,0.6004272103309631,0.1804426610469818,-0.04924548789858818
0.7773354649543762,0.6006138324737549,0.1805931180715561,-0.04897845908999443
0.7772748470306396,0.6007508039474487,0.18039670586585999,-0.04898378252983093
0.7772578001022339,0.6007753014564514,0.1803911328315735,-0.0489727184176445
0.7773666381835938,0.6006828546524048,0.18027900159358978,-0.0487930066883564
0.7773433923721313,0.6008095741271973,0.18000657856464386,-0.04860902950167656
0.7771005630493164,0.6011096239089966,0.18013128638267517,-0.04831905663013458
0.7769565582275391,0.6012780070304871,0.18033382296562195,-0.047780994325876236
0.7768880128860474,0.6013069152832031,0.18058279156684875,-0.047590505331754684
0.776897668838501,0.6012910008430481,0.18059131503105164,-0.04760139063000679
0.776965856552124,0.6012961268424988,0.18021878600120544,-0.04783635586500168
0.7768598794937134,0.6014622449874878,0.1800721436738968,-0.04802063852548599
0.7766565680503845,0.6016466617584229,0.18040582537651062,-0.04774625599384308
0.7766132950782776,0.6015048623085022,0.18107666075229645,-0.04769847169518471
0.7765837907791138,0.6015133261680603,0.18110625445842743,-0.04795687645673752
0.7765383124351501,0.6016411781311035,0.180705726146698,-0.04859719052910805
0.7764552235603333,0.6018258333206177,0.18035252392292023,-0.0489484928548336
0.7764217853546143,0.601813554763794,0.1805737018585205,-0.048814259469509125
0.7761498689651489,0.6020326614379883,0.18106910586357117,-0.048601213842630386
0.7760055065155029,0.6022393107414246,0.18109506368637085,-0.04824879765510559
0.7761531472206116,0.6022722721099854,0.1802891343832016,-0.04847929999232292
0.7760917544364929,0.6025229096412659,0.17959849536418915,-0.048908721655607224
0.7760741114616394,0.6026676297187805,0.1791515350341797,-0.0490458719432354
0.7761523127555847,0.602480947971344,0.1794978380203247,-0.04883479326963425
0.7759958505630493,0.6025413870811462,0.18000707030296326,-0.04870236665010452
0.7758536338806152,0.6027189493179321,0.17998185753822327,-0.04886365309357643
0.7757275700569153,0.6029551029205322,0.17964158952236176,-0.0492015965282917
0.7755625247955322,0.6030805706977844,0.17988458275794983,-0.04937921091914177
0.775593638420105,0.6029101014137268,0.18028123676776886,-0.04952498525381088
0.7757396697998047,0.6027682423591614,0.18009056150913239,-0.04965769872069359
0.77567058801651,0.6028714776039124,0.1799895465373993,-0.04984899237751961
0.7756864428520203,0.6028457283973694,0.18000254034996033,-0.049866095185279846
0.7756703495979309,0.6028790473937988,0.17997021973133087,-0.04983220621943474
0.7756378650665283,0.602893590927124,0.18011964857578278,-0.04961951822042465
0.7756838202476501,0.6027661561965942,0.18039949238300323,-0.04943356290459633
0.7757589221000671,0.6027451753616333,0.18013092875480652,-0.04948994144797325
0.7758153080940247,0.6027897596359253,0.17962835729122162,-0.049887679517269135
0.7759630084037781,0.6027084589004517,0.17913874983787537,-0.05033082515001297
0.7758944034576416,0.6028096079826355,0.17901326715946198,-0.050624072551727295
0.7759938836097717,0.6026015281677246,0.179307222366333,-0.0505359023809433
0.7760433554649353,0.6023926734924316,0.17985498905181885,-0.0503193736076355
0.7761815786361694,0.6021789312362671,0.17996859550476074,-0.05034089833498001
0.7764154672622681,0.6020479798316956,0.1792839616537094,-0.05074021965265274
0.7766188383102417,0.6019471883773804,0.17862585186958313,-0.051143188029527664
0.7766115069389343,0.6019600033760071,0.1786174476146698,-0.05113324895501137
0.7764145135879517,0.6020210981369019,0.17939557135105133,-0.05067824199795723
0.7761492729187012,0.6022065281867981,0.18004649877548218,-0.050227656960487366
0.7761211395263672,0.6022360324859619,0.18006743490695953,-0.05023523420095444
0.7761331796646118,0.6023683547973633,0.17940469086170197,-0.050830140709877014
0.7760385274887085,0.602690577507019,0.1786467730998993,-0.05112471804022789
0.7758033871650696,0.6029303073883057,0.1789533942937851,-0.050793081521987915
0.7756668329238892,0.6029114127159119,0.17972473800182343,-0.05037815123796463
0.7756646871566772,0.6029149293899536,0.17972253262996674,-0.05037548393011093
0.7757228016853333,0.6029629707336426,0.17920975387096405,-0.05073091387748718
0.7757322192192078,0.6030175089836121,0.17892082035541534,-0.0509585440158844
0.7757214903831482,0.6030349135398865,0.17891237139701843,-0.05094725638628006
0.7757156491279602,0.6029702425003052,0.17917737364768982,-0.05086847022175789
0.7759547829627991,0.6026315689086914,0.17924858629703522,-0.05098291486501694
0.7760563492774963,0.6024836301803589,0.17929142713546753,-0.051035430282354355
0.7762148380279541,0.6022463440895081,0.17939253151416779,-0.0510702021420002
0.776374101638794,0.602013349533081,0.17947858572006226,-0.05109507590532303
0.7765541076660156,0.6018465757369995,0.1792573779821396,-0.05110083520412445
0.7767451405525208,0.6016583442687988,0.17906343936920166,-0.05109434202313423
0.7768541574478149,0.6016183495521545,0.17874625325202942,-0.05101834237575531
0.7768429517745972,0.6017076373100281,0.1785317063331604,-0.050887297838926315
0.7768241167068481,0.6017440557479858,0.17850016057491302,-0.05085325613617897
0.7768015265464783,0.6017717123031616,0.17850618064403534,-0.050850093364715576
0.776785135269165,0.6017858982086182,0.17852653563022614,-0.05086153745651245
0.7767630815505981,0.6018249988555908,0.1784997433423996,-0.05083034932613373
0.776806116104126,0.6017591953277588,0.1784588098526001,-0.051095426082611084
0.7768494486808777,0.6016234755516052,0.17869146168231964,-0.05122155323624611
0.7768914103507996,0.6014488339424133,0.17906761169433594,-0.05132131278514862
0.7767019867897034,0.6015468835830688,0.17954032123088837,-0.05138709396123886
0.7767074108123779,0.6015347242355347,0.17955416440963745,-0.051400989294052124
0.7766839861869812,0.6015644073486328,0.17955756187438965,-0.05139520391821861
0.7767285704612732,0.60146564245224,0.17969630658626556,-0.05139138922095299
0.7767215967178345,0.6014584302902222,0.17974062263965607,-0.05142690986394882
0.7768435478210449,0.6013361811637878,0.17952410876750946,-0.05176914483308792
0.7768653631210327,0.6014273166656494,0.17907723784446716,-0.05193090811371803
0.7768217325210571,0.6014595627784729,0.17922523617744446,-0.051697902381420135
0.7767860293388367,0.6012988686561584,0.17999149858951569,-0.05144043266773224
0.7767737507820129,0.6013117432594299,0.18000082671642303,-0.051443856209516525
0.7769083976745605,0.6012462377548218,0.17950507998466492,-0.05190586298704147
0.7768359780311584,0.6013960838317871,0.17920298874378204,-0.052296023815870285
0.776833176612854,0.6014068126678467,0.17918452620506287,-0.05227907374501228
0.7766607999801636,0.6014612317085266,0.1798143982887268,-0.05205105245113373
0.7764158844947815,0.6016291379928589,0.18036487698554993,-0.05185961723327637
0.7765533328056335,0.6014525294303894,0.1802363395690918,-0.05229516327381134
0.7765749096870422,0.601527214050293,0.17974738776683807,-0.052796199917793274
0.7765102386474609,0.6016753911972046,0.1795409917831421,-0.052760057151317596
0.7763357758522034,0.6017085313796997,0.18015547096729279,-0.05285447835922241
0.7761514186859131,0.6019070148468018,0.18025605380535126,-0.05295921117067337
0.7758641839027405,0.6023478507995605,0.1799575537443161,-0.05317143350839615
0.775544285774231,0.6026707887649536,0.1802675873041153,-0.05312897637486458
0.7753017544746399,0.6028612852096558,0.18065160512924194,-0.053203873336315155
0.7750857472419739,0.603148341178894,0.18059487640857697,-0.05328773334622383
0.7748721837997437,0.6033708453178406,0.18067459762096405,-0.05360459163784981
0.7748009562492371,0.6033491492271423,0.18097655475139618,-0.053860411047935486
0.7748422026634216,0.6031845808029175,0.18121376633644104,-0.0543099045753479
0.7746386528015137,0.6033914089202881,0.18131831288337708,-0.05456708371639252
0.7746425867080688,0.6033591628074646,0.18135055899620056,-0.054759759455919266
0.7748045325279236,0.6030943393707275,0.18140386044979095,-0.055208589881658554
0.7747563719749451,0.6033042669296265,0.18083131313323975,-0.05546645075082779
0.7746504545211792,0.6035584807395935,0.180430606007576,-0.05548461154103279
0.7745862007141113,0.603630006313324,0.18053345382213593,-0.055270966142416
0.7743310332298279,0.6038967370986938,0.18075217306613922,-0.05521626025438309
0.7740955352783203,0.6042835712432861,0.18047477304935455,-0.05519501864910126
0.7740930914878845,0.6042870879173279,0.1804739534854889,-0.05519338697195053
0.7739344239234924,0.6044033765792847,0.18077924847602844,-0.05514556169509888
0.7738412618637085,0.6045401692390442,0.18066777288913727,-0.055318932980298996
0.7736486792564392,0.6047363877296448,0.18066035211086273,-0.05588984116911888
0.7736710906028748,0.6046776175498962,0.18065901100635529,-0.05621859058737755
0.7735607028007507,0.604731559753418,0.18090827763080597,-0.05635509639978409
0.7732692956924438,0.6049116253852844,0.18157555162906647,-0.056274041533470154
0.7731700539588928,0.6049314141273499,0.18184803426265717,-0.056545190513134
0.7730013728141785,0.6051962375640869,0.18157126009464264,-0.05690651386976242
0.7727386951446533,0.6055474877357483,0.18148036301136017,-0.05702703818678856
0.7727316617965698,0.6055434942245483,0.18151463568210602,-0.0570543110370636
0.7727704048156738,0.6054824590682983,0.1813998818397522,-0.05754101276397705
0.7726536989212036,0.6058329343795776,0.18051064014434814,-0.05821327865123749
0.7724664211273193,0.606220543384552,0.17993517220020294,-0.058444686233997345
0.7721573710441589,0.6064954996109009,0.1803799271583557,-0.05830443277955055
0.7716765999794006,0.6068621277809143,0.18126775324344635,-0.058100759983062744
0.7714969515800476,0.6069666743278503,0.1815403252840042,-0.05854073539376259
0.7717404365539551,0.6067655086517334,0.18091392517089844,-0.05935121327638626
0.7720180749893188,0.6065846681594849,0.18007929623126984,-0.06012136861681938
0.772024393081665,0.6065917611122131,0.1800391972064972,-0.060088708996772766
0.7719550728797913,0.6064252853393555,0.1809639185667038,-0.0598825141787529
0.7716811895370483,0.6065561175346375,0.18181359767913818,-0.05951158329844475
0.7718636393547058,0.6063148379325867,0.18181535601615906,-0.05960063636302948
0.7720382809638977,0.6062415242195129,0.18110834062099457,-0.06023155152797699
0.7720642685890198,0.6064839959144592,0.18003416061401367,-0.06067731976509094
0.7719003558158875,0.606686532497406,0.1801186203956604,-0.06048763543367386
0.7716655731201172,0.6067051291465759,0.1813136339187622,-0.059721171855926514
0.7716185450553894,0.6065795421600342,0.18194590508937836,-0.0596812441945076
0.7715475559234619,0.6068125367164612,0.181220144033432,-0.060433581471443176
0.7713810205459595,0.607238233089447,0.1802617609500885,-0.06114547327160835
0.7711763381958008,0.6074199080467224,0.18059706687927246,-0.0609327107667923
0.7709846496582031,0.6073355078697205,0.18191789090633392,-0.06026807427406311
0.7708450555801392,0.6073033213615417,0.18259847164154053,-0.0603201761841774
0.7709752321243286,0.6072976589202881,0.18192985653877258,-0.0607326477766037
0.7710866332054138,0.6073629260063171,0.18112963438034058,-0.061055995523929596
0.7709271311759949,0.6075394749641418,0.18127122521400452,-0.06089288368821144
0.7709431052207947,0.6074495911598206,0.18160030245780945,-0.060605488717556
0.7709629535675049,0.6073771715164185,0.18178153038024902,-0.06053616851568222
0.7712146639823914,0.6071439981460571,0.1814388632774353,-0.06069651246070862
0.7713273167610168,0.6070889830589294,0.18107928335666656,-0.06088830530643463
0.7714765071868896,0.6069285273551941,0.1809198260307312,-0.06107171252369881
0.7714937925338745,0.6069023609161377,0.1809290200471878,-0.06108646094799042
0.7715142369270325,0.6067931056022644,0.1812625676393509,-0.06092437356710434
0.7714980244636536,0.6068084836006165,0.18127767741680145,-0.06093136966228485
0.7714245915412903,0.6069047451019287,0.18120510876178741,-0.06111738830804825
0.7713887691497803,0.6070019602775574,0.18095575273036957,-0.06134502589702606
0.7712292671203613,0.6072556972503662,0.1807590126991272,-0.06141849607229233
0.77122962474823,0.6072524189949036,0.1807660609483719,-0.061424851417541504
0.7712299227714539,0.6072445511817932,0.18078573048114777,-0.061442211270332336
0.7712004780769348,0.607403039932251,0.180294007062912,-0.06168922036886215
0.7711704969406128,0.6074402332305908,0.1802992820739746,-0.061682287603616714
0.7710520029067993,0.607366681098938,0.18109892308712006,-0.06154454126954079
0.771031379699707,0.6073878407478333,0.18111425638198853,-0.06155000999569893
0.7709774374961853,0.6075477600097656,0.18071399629116058,-0.06182195991277695
0.7709804177284241,0.6075366139411926,0.18073324859142303,-0.0618399903178215
0.7709881067276001,0.607407808303833,0.1811663657426834,-0.06174033135175705
0.7709665298461914,0.6074324250221252,0.18117594718933105,-0.061740364879369736
0.7709678411483765,0.6074246764183044,0.18119113147258759,-0.0617542527616024
0.7709681391716003,0.6074206829071045,0.1812007576227188,-0.06176280602812767
0.7710084915161133,0.6073753833770752,0.18118099868297577,-0.06176111847162247
0.770997166633606,0.6073861122131348,0.18119177222251892,-0.061766184866428375
0.7709769606590271,0.6073984503746033,0.18122832477092743,-0.06179046258330345
0.7711001038551331,0.607384979724884,0.1806730180978775,-0.06201109662652016
0.7711762189865112,0.6074338555335999,0.1800948679447174,-0.06226838380098343
0.7710506916046143,0.6075006127357483,0.18039295077323914,-0.06230798736214638
0.7708569169044495,0.6075785160064697,0.18099279701709747,-0.06220684573054314
0.7706398963928223,0.6077262163162231,0.181379497051239,-0.062326643615961075
0.7704527378082275,0.6079065203666687,0.18154439330101013,-0.06240047886967659
0.770311176776886,0.6080273389816284,0.18166786432266235,-0.06261139363050461
0.7702782154083252,0.6080610156059265,0.18169204890727997,-0.06261985749006271
0.77027428150177,0.6080617904663086,0.18170329928398132,-0.06262823939323425
0.7702674865722656,0.6080651879310608,0.18171732127666473,-0.06263794749975204
0.7702826857566833,0.6081172227859497,0.18144555389881134,-0.06273417919874191
0.7700991630554199,0.6084795594215393,0.18105724453926086,-0.06259611248970032
0.7699724435806274,0.608648419380188,0.181157648563385,-0.062221817672252655
0.7698813676834106,0.6088085174560547,0.1810891479253769,-0.06198001280426979
0.7697332501411438,0.6091111302375793,0.18072213232517242,-0.061918970197439194
0.7698431015014648,0.6090908646583557,0.18031162023544312,-0.061948902904987335
0.7699010372161865,0.6090756058692932,0.18006844818592072,-0.062086038291454315
0.7699081301689148,0.6090832352638245,0.18002475798130035,-0.062050268054008484
0.7698606252670288,0.6090546250343323,0.18037404119968414,-0.06190670281648636
0.7697437405586243,0.6090799570083618,0.18076376616954803,-0.06197251379489899
0.7697538733482361,0.6091233491897583,0.18049365282058716,-0.06220892071723938
0.7697795033454895,0.6090967059135437,0.1804758459329605,-0.06220315769314766
0.7698178291320801,0.6090385913848877,0.18049678206443787,-0.06223645061254501
0.769813597202301,0.6090501546859741,0.18048124015331268,-0.06222109496593475
0.7698150873184204,0.6090518236160278,0.1804720163345337,-0.062213532626628876
0.769582986831665,0.6092543005943298,0.18082591891288757,-0.062074266374111176
0.7695512771606445,0.609288215637207,0.18084506690502167,-0.06207891181111336
0.7695989608764648,0.6093162894248962,0.18052290380001068,-0.062149304896593094
0.7696033716201782,0.6093164086341858,0.1805080622434616,-0.06213788688182831
0.7695956826210022,0.6093176603317261,0.18053050339221954,-0.06215474009513855
0.7696185111999512,0.6092936992645264,0.18051588535308838,-0.06215062737464905
0.7696126699447632,0.60930997133255,0.18049362301826477,-0.062128711491823196
0.7695895433425903,0.6093348860740662,0.18050672113895416,-0.062131382524967194
0.7695937156677246,0.6093301773071289,0.18050500750541687,-0.06213145703077316
0.7696013450622559,0.6093187928199768,0.18050844967365265,-0.06213747337460518
0.7695732116699219,0.609348714351654,0.18052604794502258,-0.06214211881160736
0.7695407271385193,0.6093776822090149,0.18056029081344604,-0.06215981766581535
0.7695298790931702,0.6093859076499939,0.18057581782341003,-0.062169305980205536
0.7695156931877136,0.6094696521759033,0.18031471967697144,-0.06228264793753624
0.7695342302322388,0.6094453930854797,0.18031498789787292,-0.06229005008935928
0.7695314884185791,0.609363853931427,0.1806960254907608,-0.06201599910855293
0.769598126411438,0.6092604994773865,0.1808502972126007,-0.06175311654806137
0.7697436809539795,0.6091275215148926,0.1809370219707489,-0.06099342554807663
0.7700595855712891,0.6087477803230286,0.18157371878623962,-0.058866940438747406
0.7704663872718811,0.608144223690033,0.18295419216156006,-0.0554065927863121
0.7708121538162231,0.6073997616767883,0.18508318066596985,-0.05156029388308525
0.7712198495864868,0.6064344644546509,0.18742159008979797,-0.0482725091278553
0.7715035080909729,0.6056350469589233,0.1893869787454605,-0.046056117862463
0.7717928290367126,0.6048770546913147,0.19096897542476654,-0.044613827019929886
0.7717385292053223,0.6044058799743652,0.1929398775100708,-0.04344572126865387
0.7713989019393921,0.6039444208145142,0.19600066542625427,-0.04217299446463585
0.7706499695777893,0.6036075353622437,0.20019811391830444,-0.040954574942588806
0.7699905633926392,0.6032217741012573,0.2040068656206131,-0.04024071991443634
0.7695488333702087,0.6029950380325317,0.2062898874282837,-0.04044971242547035
0.7692306041717529,0.6030563116073608,0.20717670023441315,-0.04104946181178093
0.7691370248794556,0.6030271053314209,0.20750688016414642,-0.0415637269616127
0.7691463232040405,0.6029332876205444,0.20772938430309296,-0.04164135083556175
0.7693321108818054,0.6027030944824219,0.20775753259658813,-0.041400883346796036
0.7696189284324646,0.6023933291435242,0.20765534043312073,-0.04108757898211479
0.769744873046875,0.6022460460662842,0.207665354013443,-0.04083718731999397
0.7698091268539429,0.602173924446106,0.20768748223781586,-0.040577925741672516
0.7699095010757446,0.6020720601081848,0.20766526460647583,-0.0402955524623394
0.7700368762016296,0.6020119786262512,0.2074234038591385,-0.04000449180603027
0.7701546549797058,0.6020141243934631,0.2070162147283554,-0.039811715483665466
0.7702215909957886,0.6021026372909546,0.20652058720588684,-0.03975437209010124
0.7702816128730774,0.6022037267684937,0.20601660013198853,-0.039673637598752975
0.7702608704566956,0.602243185043335,0.20598575472831726,-0.03963790461421013
0.7700815796852112,0.6023352146148682,0.20646150410175323,-0.039248038083314896
0.7699705958366394,0.6022674441337585,0.20711910724639893,-0.03899868577718735
0.7699326276779175,0.6023097634315491,0.20713719725608826,-0.0389995276927948
0.769974946975708,0.6022924780845642,0.20699162781238556,-0.039203595370054245
0.7699713706970215,0.602387011051178,0.2066928595304489,-0.03939666971564293
0.770038902759552,0.6023341417312622,0.20657162368297577,-0.039518799632787704
0.7701746225357056,0.6021696329116821,0.20655441284179688,-0.039472322911024094
0.7703570127487183,0.6020071506500244,0.20634324848651886,-0.03949476778507233
0.770595371723175,0.6019047498703003,0.20572510361671448,-0.039632584899663925
0.7706983089447021,0.6019676327705383,0.20511814951896667,-0.03982183709740639
0.7707643508911133,0.6019697785377502,0.20483702421188354,-0.039955563843250275
0.7707454562187195,0.6019911766052246,0.2048458456993103,-0.03995577618479729
0.7707282304763794,0.6020148992538452,0.20484237372875214,-0.03994588181376457
0.7707142233848572,0.6020347476005554,0.2048385590314865,-0.03993690386414528
0.770728588104248,0.6020118594169617,0.20484904944896698,-0.039951927959918976
0.7707047462463379,0.6020599603652954,0.20475983619689941,-0.040141742676496506
0.7706337571144104,0.6021840572357178,0.2046447992324829,-0.04023384302854538
0.7704723477363586,0.602349042892456,0.20474883913993835,-0.04032272472977638
0.7704541683197021,0.6023654937744141,0.20476695895195007,-0.040331557393074036
0.770420491695404,0.6024052500724792,0.20477774739265442,-0.04032767936587334
0.7704270482063293,0.6023973226547241,0.20477615296840668,-0.040328893810510635
0.7702683210372925,0.6026273369789124,0.20468810200691223,-0.04037247225642204
0.7702487707138062,0.6026557087898254,0.2046806663274765,-0.04035810008645058
0.7702033519744873,0.6027119159698486,0.20468831062316895,-0.040346771478652954
0.7701992988586426,0.6027213335037231,0.20467790961265564,-0.04033592343330383
0.7701952457427979,0.6027171015739441,0.20470167696475983,-0.04035545513033867
0.7701787352561951,0.6027395129203796,0.2046998292207718,-0.04034718498587608
0.7701844573020935,0.602732241153717,0.20469926297664642,-0.04034898802638054
0.7701794505119324,0.602738618850708,0.2046995460987091,-0.04034726694226265
0.7701524496078491,0.6027726531028748,0.20470237731933594,-0.04033903405070305
0.7701244354248047,0.6027956008911133,0.20473626255989075,-0.04035799950361252
0.7701371908187866,0.602776288986206,0.20474347472190857,-0.040369439870119095
0.770171046257019,0.6027892827987671,0.2045506238937378,-0.040504779666662216
0.7701610922813416,0.6027947664260864,0.2045697271823883,-0.04051775857806206
0.7701210379600525,0.6028456687927246,0.20457273721694946,-0.04050450026988983
0.7701053023338318,0.6028615236282349,0.20458471775054932,-0.04050884395837784
0.7701015472412109,0.6028580665588379,0.2046058177947998,-0.04052608832716942
0.7701008319854736,0.6028569936752319,0.20461058616638184,-0.04053008556365967
0.7701133489608765,0.6028414964675903,0.20460867881774902,-0.04053337499499321
0.7700749635696411,0.6028813123703003,0.20463408529758453,-0.040540676563978195
0.7700493931770325,0.6029068231582642,0.2046537846326828,-0.040547966957092285
0.7700396180152893,0.6029208898544312,0.2046506404876709,-0.04054125398397446
0.770043671131134,0.6029108166694641,0.20466279983520508,-0.04055367782711983
0.7700505256652832,0.602900505065918,0.20462429523468018,-0.04076746106147766
0.7700550556182861,0.6028934121131897,0.20462779700756073,-0.040772322565317154
0.7700816988945007,0.602863609790802,0.20461487770080566,-0.040771543979644775
0.7700971961021423,0.602846622467041,0.20460745692253113,-0.04077107086777687
0.7700932621955872,0.6028499007225037,0.20461159944534302,-0.04077325016260147
0.7700874209403992,0.6028524041175842,0.2046244889497757,-0.040782369673252106
0.7699341177940369,0.6031324863433838,0.2043677419424057,-0.04082365706562996
0.7698445320129395,0.6033107042312622,0.20417891442775726,-0.04082515835762024
0.7698200941085815,0.603350818157196,0.204158216714859,-0.040797002613544464
0.7695614099502563,0.6035754084587097,0.20450982451438904,-0.0405929870903492
0.7694536447525024,0.6036651730537415,0.20467562973499298,-0.0404641218483448
0.76943439245224,0.6036823987960815,0.20469561219215393,-0.040474213659763336
0.7693496346473694,0.6037973165512085,0.20463666319847107,-0.040666814893484116
0.7695789337158203,0.603550374507904,0.20446167886257172,-0.040876299142837524
0.7695944905281067,0.6035372018814087,0.20444343984127045,-0.040866319090127945
0.769581139087677,0.6035460233688354,0.20446480810642242,-0.04088004678487778
0.7695479393005371,0.6035815477371216,0.20448407530784607,-0.040883954614400864
0.7695200443267822,0.6036147475242615,0.20449239015579224,-0.040880173444747925
0.76949542760849,0.603636622428894,0.2045174092054367,-0.04089268669486046
0.7694950103759766,0.6036422848701477,0.20450498163700104,-0.040881410241127014
0.7694615125656128,0.6036744713783264,0.20453348755836487,-0.04089345410466194
0.769446611404419,0.6036866903305054,0.20455139875411987,-0.0409034863114357
0.7694327235221863,0.6036946177482605,0.20457664132118225,-0.040920455008745193
0.7694213390350342,0.6037073731422424,0.204581618309021,-0.04092037305235863
0.7693893909454346,0.6037451028823853,0.204591765999794,-0.04091661423444748
0.7693720459938049,0.6037741303443909,0.20457549393177032,-0.04089522734284401
0.7693873643875122,0.6037597060203552,0.2045617252588272,-0.040889084339141846
0.7693654894828796,0.6037964820861816,0.20454096794128418,-0.04086186736822128
0.7693485021591187,0.6038073897361755,0.2045689821243286,-0.04088006913661957
0.769327700138092,0.6038298010826111,0.20458057522773743,-0.04088212177157402
0.769291341304779,0.603868305683136,0.20460230112075806,-0.0408870130777359
0.7692859172821045,0.6038680672645569,0.20462054014205933,-0.04090110957622528
0.7692779898643494,0.6038779020309448,0.20462223887443542,-0.04089941829442978
0.7692754864692688,0.6038740873336792,0.20463962852954865,-0.04091396555304527
0.7692885994911194,0.6038565039634705,0.20464080572128296,-0.04092027246952057
0.7692762017250061,0.6038678884506226,0.2046525925397873,-0.040925852954387665
0.7692400217056274,0.6039050817489624,0.2046772986650467,-0.04093344882130623
0.7692198157310486,0.6039267182350159,0.2046893835067749,-0.04093610495328903
0.76919025182724,0.6039575934410095,0.2047082483768463,-0.04094114527106285
0.7691933512687683,0.6039601564407349,0.20469163358211517,-0.04092760384082794
0.7691951394081116,0.6039698123931885,0.20466159284114838,-0.040901556611061096
0.7691681385040283,0.6039924621582031,0.2046927660703659,-0.040918588638305664
0.7691612243652344,0.6039867997169495,0.20472949743270874,-0.04094858840107918
0.7691893577575684,0.603942334651947,0.20474907755851746,-0.040977317839860916
0.7691715359687805,0.603966236114502,0.20474785566329956,-0.04096905514597893
0.7691500782966614,0.603983461856842,0.20477406680583954,-0.04098391532897949
0.7691377401351929,0.6039938926696777,0.20478807389736176,-0.04099148139357567
0.7691176533699036,0.604013979434967,0.20480357110500336,-0.040997229516506195
0.7690995335578918,0.604039192199707,0.2047993242740631,-0.04098622500896454
0.7690984606742859,0.6040424108505249,0.2047947198152542,-0.040981706231832504
0.7691000699996948,0.6040450930595398,0.20478270947933197,-0.04097166284918785
0.7690696120262146,0.6040844917297363,0.20478317141532898,-0.04095993563532829
0.7690691947937012,0.6040771007537842,0.204803004860878,-0.04097747057676315
0.7690512537956238,0.6040991544723511,0.2048061490058899,-0.04097312316298485
0.7690186500549316,0.604128360748291,0.20483900606632233,-0.040989432483911514
0.769025444984436,0.6041247844696045,0.20482629537582397,-0.04098077490925789
0.7690163850784302,0.6041378378868103,0.20482298731803894,-0.04097424075007439
0.7690046429634094,0.6041471362113953,0.20483770966529846,-0.04098270460963249
0.7690004110336304,0.6041462421417236,0.2048536092042923,-0.04099522531032562
0.7690035700798035,0.604142427444458,0.2048533856868744,-0.040996234863996506
0.7689748406410217,0.6041723489761353,0.20487162470817566,-0.04100107029080391
0.7689791321754456,0.6041696071624756,0.20486485958099365,-0.04099671170115471
0.7689617872238159,0.6041815876960754,0.20489093661308289,-0.04101308435201645
0.7689582705497742,0.6041774749755859,0.20491255819797516,-0.041030995547771454
0.7689639925956726,0.6041755676269531,0.20489871501922607,-0.0410209558904171
0.7689444422721863,0.6041994690895081,0.20490241050720215,-0.04101647064089775
0.768928050994873,0.6042137742042542,0.20491990447044373,-0.04102553054690361
0.7689018249511719,0.6042354702949524,0.20495133101940155,-0.04104303941130638
0.7688984870910645,0.6042293310165405,0.2049773633480072,-0.04106496274471283
0.7689031958580017,0.6042213439941406,0.20498180389404297,-0.041070837527513504
0.7689231038093567,0.604197084903717,0.20497781038284302,-0.04107525199651718
0.7689225077629089,0.6042024493217468,0.20496682822704315,-0.04106514900922775
0.7688795328140259,0.6042483448982239,0.20499154925346375,-0.04107005149126053
0.7688890695571899,0.6042332649230957,0.204998180270195,-0.0410798043012619
0.7689074873924255,0.6042201519012451,0.2049711048603058,-0.04106302186846733
0.768917977809906,0.6042144894599915,0.20495109260082245,-0.04104938358068466
0.7689135074615479,0.6042205095291138,0.20495037734508514,-0.04104698821902275
0.7688796520233154,0.6042601466178894,0.20496179163455963,-0.04104358330368996
0.7688766717910767,0.6042670607566833,0.2049538791179657,-0.04103536903858185
0.7688568234443665,0.6042912006378174,0.20495794713497162,-0.041031092405319214
0.76883864402771,0.6043143272399902,0.2049592137336731,-0.04102495685219765
0.7688353657722473,0.6043069958686829,0.20498821139335632,-0.0410495400428772
0.7688304781913757,0.6043043732643127,0.20501072704792023,-0.041067685931921005
0.7688297629356384,0.6042985320091248,0.20502759516239166,-0.0410824753344059
0.7688353657722473,0.6042952537536621,0.20501752197742462,-0.041075754910707474
0.7688180208206177,0.6043141484260559,0.2050265371799469,-0.0410768948495388
0.7688003182411194,0.6043251156806946,0.20505717396736145,-0.041097111999988556
0.768786609172821,0.6043406128883362,0.2050628662109375,-0.04109673574566841
0.7687704563140869,0.6043525338172913,0.20508548617362976,-0.04111048951745033
0.7687651515007019,0.6043540239334106,0.2050989270210266,-0.04112038388848305
0.7687548398971558,0.6043663620948792,0.20510154962539673,-0.041118621826171875
0.768753707408905,0.6043724417686462,0.20509012043476105,-0.041107963770627975
0.7687640190124512,0.6043617725372314,0.20508332550525665,-0.04110603407025337
0.768742561340332,0.6043910384178162,0.20507986843585968,-0.04109438136219978
0.7687168717384338,0.6044303178787231,0.20506472885608673,-0.04107062146067619
0.7687063813209534,0.6044368743896484,0.20508284866809845,-0.041082557290792465
0.7687248587608337,0.6044130325317383,0.20508234202861786,-0.04108951613306999
0.7687005996704102,0.6044386029243469,0.20509721338748932,-0.04109310358762741
0.7687151432037354,0.6044220924377441,0.20509091019630432,-0.041093334555625916
0.7686739563941956,0.6044737100601196,0.205095574259758,-0.041081029921770096
0.7686920762062073,0.6044543981552124,0.20508556067943573,-0.041079286485910416
0.7686823010444641,0.604460597038269,0.20510147511959076,-0.04108962416648865
0.768677294254303,0.6044690012931824,0.20509658753871918,-0.04108327999711037
0.7686574459075928,0.6044838428497314,0.20512379705905914,-0.0410996712744236
0.7686707377433777,0.6044617295265198,0.20513632893562317,-0.0411161333322525
0.7686595320701599,0.6044765114784241,0.20513540506362915,-0.04111086577177048
0.7686797976493835,0.6044526696205139,0.20512911677360535,-0.04111337289214134
0.7686577439308167,0.6044811010360718,0.20513013005256653,-0.04110540449619293
0.7686343193054199,0.604497492313385,0.20516489446163177,-0.04112713038921356
0.7686243057250977,0.6044952273368835,0.20520293712615967,-0.041157130151987076
0.7686240673065186,0.6044948101043701,0.20520515739917755,-0.041158974170684814
0.7686308026313782,0.6044905781745911,0.2051936686038971,-0.041151437908411026
0.7686293721199036,0.6044981479644775,0.2051793485879898,-0.04113808646798134
0.7686023712158203,0.6045235395431519,0.20520353317260742,-0.041148893535137177
0.76860111951828,0.6045251488685608,0.20520342886447906,-0.04114832729101181
0.7685710191726685,0.6045600175857544,0.20521441102027893,-0.04114605113863945
0.7685717344284058,0.6045544147491455,0.20522603392601013,-0.04115673154592514
0.7685664296150208,0.6045483946800232,0.20525793731212616,-0.04118315875530243
0.7685771584510803,0.6045317649841309,0.20526504516601562,-0.04119376093149185
0.7685630917549133,0.6045508980751038,0.2052627056837082,-0.04118606820702553
0.7685175538063049,0.6046033501625061,0.20527930557727814,-0.04118269309401512
0.7685264348983765,0.6045904159545898,0.20528259873390198,-0.04118921607732773
0.7685099840164185,0.6046058535575867,0.20529787242412567,-0.041196227073669434
0.768470823764801,0.6046530604362488,0.2053070217370987,-0.04118873551487923
0.7684643268585205,0.6046725511550903,0.20527897775173187,-0.04116111248731613
0.7684571743011475,0.6046870350837708,0.20526598393917084,-0.0411466546356678
0.7684062719345093,0.6047459840774536,0.20528370141983032,-0.04114214703440666
0.7684000730514526,0.604753315448761,0.205285906791687,-0.04114159941673279
0.7683806419372559,0.6048095226287842,0.20516039431095123,-0.041303373873233795
0.7683839797973633,0.6048077940940857,0.20515358448028564,-0.04129865765571594
0.7683620452880859,0.604826033115387,0.20517940819263458,-0.04131293296813965
0.7683432698249817,0.6048411130905151,0.20520231127738953,-0.041325945407152176
0.768344521522522,0.6048308610916138,0.20522399246692657,-0.04134581610560417
0.7683344483375549,0.6048439145088196,0.20522379875183105,-0.04134164750576019
0.7683440446853638,0.6048322916030884,0.20522195100784302,-0.041343823075294495
0.7683314681053162,0.604846179485321,0.20522823929786682,-0.04134439677000046
0.768342912197113,0.6048306226730347,0.20522964000701904,-0.041350286453962326
0.7683088779449463,0.6048535108566284,0.20528294146060944,-0.04138429835438728
0.7683062553405762,0.6048566102981567,0.2052839696407318,-0.04138413071632385
0.7683043479919434,0.6048526167869568,0.20529985427856445,-0.041397612541913986
0.7682909965515137,0.604864239692688,0.20531383156776428,-0.041404806077480316
0.7682840824127197,0.6048705577850342,0.20532085001468658,-0.041408274322748184
0.7682740688323975,0.6048840284347534,0.20531940460205078,-0.041403014212846756
0.7682617902755737,0.6048921942710876,0.20533904433250427,-0.04141563922166824
0.7682504653930664,0.6049109101295471,0.20532871782779694,-0.041401900351047516
0.7682504653930664,0.6049115657806396,0.20532739162445068,-0.04140067473053932
0.7682318687438965,0.6049333810806274,0.20533284544944763,-0.04139815270900726
0.7682226896286011,0.604943573474884,0.20533742010593414,-0.0413985401391983
0.768223226070404,0.6049449443817139,0.2053319811820984,-0.04139392077922821
0.7682254910469055,0.6049466729164124,0.20532052218914032,-0.04138455167412758
0.768230676651001,0.6049425005912781,0.2053137570619583,-0.041380625218153
0.7682211399078369,0.6049573421478271,0.20530837774276733,-0.0413719043135643
0.7682045102119446,0.604972243309021,0.2053247094154358,-0.0413798987865448
0.7681950330734253,0.6049818992614746,0.20533105731010437,-0.0413818284869194
0.7681716084480286,0.6050078272819519,0.20534199476242065,-0.04138226434588432
0.7681873440742493,0.6049944162368774,0.20532476902008057,-0.04137314483523369
0.768172562122345,0.6050122976303101,0.20532818138599396,-0.041370246559381485
0.7681667804718018,0.6050164103507996,0.20533642172813416,-0.04137534275650978
0.7681650519371033,0.6050111651420593,0.20535536110401154,-0.04139157757163048
0.7681660056114197,0.6050047278404236,0.2053680717945099,-0.0414033867418766
0.7681496739387512,0.605019211769104,0.20538508892059326,-0.04141204059123993
0.7681576013565063,0.6050084233283997,0.20538604259490967,-0.04141610860824585
0.7681447267532349,0.6050279140472412,0.20537927746772766,-0.041404880583286285
0.7681459784507751,0.6050270795822144,0.205376997590065,-0.0414033904671669
0.7681313157081604,0.6050431132316589,0.20538482069969177,-0.04140447825193405
0.7681074738502502,0.6050605773925781,0.20541808009147644,-0.04142473265528679
0.7681064605712891,0.6050532460212708,0.2054399847984314,-0.041443899273872375
0.7680966258049011,0.6050594449043274,0.20545609295368195,-0.04145441949367523
0.7680946588516235,0.6050661206245422,0.20544598996639252,-0.0414445698261261
0.7680920362472534,0.6050642132759094,0.20545890927314758,-0.041455138474702835
0.7680609822273254,0.6050919890403748,0.20549021661281586,-0.04147069528698921
0.7680358290672302,0.6051192283630371,0.20550327003002167,-0.04147234931588173
0.7680495977401733,0.6051114797592163,0.20547842979431152,-0.041455596685409546
0.7680704593658447,0.6051256656646729,0.20534299314022064,-0.04153414070606232
0.7677350044250488,0.6055920124053955,0.20517583191394806,-0.04176173731684685
0.7676041126251221,0.6059513688087463,0.20451433956623077,-0.04219892621040344
0.767676055431366,0.6060897707939148,0.20357872545719147,-0.04340950772166252
0.7677859663963318,0.6062851548194885,0.20221363008022308,-0.0450860820710659
0.7683070302009583,0.6063001751899719,0.19971273839473724,-0.047109466046094894
0.7688032388687134,0.6063652038574219,0.19710619747638702,-0.04911258444190025
0.7689827680587769,0.6067037582397461,0.19482357800006866,-0.051184605807065964
0.76869797706604,0.607513427734375,0.19264675676822662,-0.05401988700032234
0.7684994339942932,0.6086411476135254,0.18890225887298584,-0.0572764091193676
0.768632173538208,0.6100905537605286,0.1821141242980957,-0.06187653914093971
0.7687866687774658,0.6122252345085144,0.1718902885913849,-0.06783211976289749
0.7685590982437134,0.6150697469711304,0.15941889584064484,-0.0747782364487648
0.7684674263000488,0.6177451610565186,0.1460828334093094,-0.08067573606967926
0.7688032388687134,0.6195534467697144,0.13354386389255524,-0.08521279692649841
0.7687786817550659,0.621213972568512,0.12390875071287155,-0.08785859495401382
0.7679418921470642,0.6230420470237732,0.11853940784931183,-0.08962313830852509
0.7669944167137146,0.6243976354598999,0.11422669142484665,-0.09380573034286499
0.7663844227790833,0.6254761219024658,0.1064351350069046,-0.1005294993519783
0.7654126882553101,0.6269017457962036,0.09955227375030518,-0.1059580147266388
0.7645813822746277,0.6276987195014954,0.09823846817016602,-0.10843870043754578
0.7637259364128113,0.6283801198005676,0.09936259686946869,-0.10949024558067322
0.7629138231277466,0.6290736198425293,0.09949691593647003,-0.1110370010137558
0.7623235583305359,0.6293677687644958,0.10017265379428864,-0.11280350387096405
0.7623332738876343,0.6288669109344482,0.10142195969820023,-0.11440244317054749
0.762783944606781,0.6279237866401672,0.10203275829553604,-0.11602532118558884
0.7636134624481201,0.62685626745224,0.10066530853509903,-0.11752579361200333
0.7640691995620728,0.6262313723564148,0.0999983474612236,-0.11846060305833817
0.7643423676490784,0.625501811504364,0.10186976194381714,-0.11895741522312164
0.7650364637374878,0.6244080662727356,0.10264886915683746,-0.11957041174173355
0.7657882571220398,0.6233541369438171,0.10223251581192017,-0.12060872465372086
0.7661515474319458,0.6227564215660095,0.1020074188709259,-0.12157554924488068
0.7660331726074219,0.6226087212562561,0.10272759944200516,-0.12246902287006378
0.7658864259719849,0.6224943995475769,0.10358070582151413,-0.12324738502502441
0.765977680683136,0.6220968961715698,0.10415392369031906,-0.12420029938220978
0.7665450572967529,0.6212908029556274,0.10301141440868378,-0.1256788671016693
0.7669574618339539,0.6207753419876099,0.10129959136247635,-0.12709379196166992
0.7665404081344604,0.6210314035415649,0.10195954144001007,-0.12782789766788483
0.7663034796714783,0.6211192607879639,0.10315486043691635,-0.1278630644083023
0.7662645578384399,0.6210569739341736,0.10321785509586334,-0.12834720313549042
0.7663915753364563,0.620894193649292,0.10212061554193497,-0.12925128638744354
0.7666906714439392,0.6206333637237549,0.10018380731344223,-0.13024112582206726
0.7667267918586731,0.6207303404808044,0.0990215465426445,-0.1304553896188736
0.7661669850349426,0.6213482618331909,0.10047150403261185,-0.12969152629375458
0.765646755695343,0.6218798160552979,0.10233568400144577,-0.1287560760974884
0.7656463384628296,0.621989905834198,0.10219629108905792,-0.12833642959594727
0.7658863663673401,0.6218045353889465,0.10151858627796173,-0.12834037840366364
0.7659751772880554,0.6218820810317993,0.10033558309078217,-0.1283646821975708
0.7656140923500061,0.6222787499427795,0.10101131349802017,-0.12806649506092072
0.7650930285453796,0.6227286458015442,0.10297589004039764,-0.12742803990840912
0.7648525834083557,0.6229601502418518,0.10407067835330963,-0.12684893608093262
0.7647863626480103,0.6231029033660889,0.10385284572839737,-0.12672561407089233
0.7650046348571777,0.6229547262191772,0.10287719964981079,-0.1269320696592331
0.7648646235466003,0.6232996582984924,0.10207265615463257,-0.1267315298318863
0.7645823955535889,0.6237102746963501,0.10258156061172485,-0.12600165605545044
0.7643887996673584,0.6239874362945557,0.10332361608743668,-0.1251949816942215
0.7643238306045532,0.6241584420204163,0.10353966802358627,-0.12455878406763077
0.7642203569412231,0.6243700981140137,0.10382375121116638,-0.12389478832483292
0.764304518699646,0.6243309378623962,0.10403521358966827,-0.12339484691619873
0.7644134163856506,0.6242822408676147,0.10363636165857315,-0.1233011931180954
0.7645553946495056,0.624264657497406,0.10267695039510727,-0.12331325560808182
0.7645370364189148,0.6242931485176086,0.10266265273094177,-0.12329480051994324
0.764484703540802,0.624380350112915,0.10307776182889938,-0.12283067405223846
0.7644015550613403,0.6244387030601501,0.10382205992937088,-0.1224236935377121
0.7642756700515747,0.6245670914649963,0.10425344109535217,-0.12218824028968811
0.7640249729156494,0.6248468160629272,0.10459326207637787,-0.12203492224216461
0.7640193700790405,0.624893307685852,0.10470719635486603,-0.1217343658208847
0.7638236284255981,0.6251311898231506,0.10502348840236664,-0.12146829068660736
0.763813316822052,0.625136137008667,0.10504858195781708,-0.12148650735616684
0.7638006806373596,0.6252238154411316,0.10475216805934906,-0.12137015163898468
0.763576865196228,0.6255531311035156,0.10477863997220993,-0.12105830758810043
0.7634531259536743,0.6257609724998474,0.10496187210083008,-0.1206049770116806
0.763398289680481,0.6258978247642517,0.10492195934057236,-0.12027621269226074
0.763390302658081,0.6259203553199768,0.10488517582416534,-0.12024170905351639
0.7633921504020691,0.6259268522262573,0.10485930740833282,-0.1202198937535286
0.7634355425834656,0.6258488297462463,0.10515409708023071,-0.12009166181087494
0.7633039951324463,0.6259551048278809,0.10562386363744736,-0.11996154487133026
0.7632229924201965,0.6259866952896118,0.10597871243953705,-0.11999934911727905
0.7631974816322327,0.6260179877281189,0.10598330944776535,-0.11999476701021194
0.763179361820221,0.6259724497795105,0.10625263303518295,-0.12010924518108368
0.7632909417152405,0.6257919073104858,0.10636772215366364,-0.12023824453353882
0.7634201645851135,0.6255834102630615,0.10659702867269516,-0.12030044943094254
0.7633761763572693,0.6254977583885193,0.1074071079492569,-0.12030402570962906
0.7635464668273926,0.6252102255821228,0.10776900500059128,-0.12039463222026825
0.7637047171592712,0.6250349879264832,0.10741537064313889,-0.12061604857444763
0.7637358903884888,0.6250032186508179,0.107390858232975,-0.12060537934303284
0.7636394500732422,0.6250530481338501,0.10798714309930801,-0.12042520940303802
0.7636087536811829,0.6250448822975159,0.10834373533725739,-0.12034250795841217
0.7636594772338867,0.6250301599502563,0.10800806432962418,-0.12039855122566223
0.7636687159538269,0.6250247955322266,0.10798873007297516,-0.12038493901491165
0.7636790871620178,0.6250145435333252,0.10798005759716034,-0.12038092315196991
0.7636772394180298,0.6250150203704834,0.10798539966344833,-0.12038493901491165
0.763688325881958,0.6250089406967163,0.10796162486076355,-0.12036808580160141
0.7635610103607178,0.6251366138458252,0.10809885710477829,-0.12038940191268921
0.7634909749031067,0.6251965165138245,0.10826466977596283,-0.12037266790866852
0.763262927532196,0.6253825426101685,0.10874384641647339,-0.12042096257209778
0.7630981802940369,0.6255047917366028,0.10916440933942795,-0.1204492449760437
0.7631794810295105,0.6254214644432068,0.10890012979507446,-0.12060684710741043
0.7631933093070984,0.6254069805145264,0.10889025032520294,-0.12060300260782242
0.7631930708885193,0.6254075765609741,0.10888919979333878,-0.12060201913118362
0.7631667852401733,0.625430166721344,0.10892245918512344,-0.12062188982963562
0.7631744146347046,0.6254278421401978,0.1089002788066864,-0.12060526013374329
0.7631601095199585,0.625458300113678,0.10886473953723907,-0.12056952714920044
0.7632335424423218,0.6253513097763062,0.10914602875709534,-0.12040533125400543
0.7632076144218445,0.6253878474235535,0.10913675278425217,-0.12038842588663101
0.7632243633270264,0.6253701448440552,0.10912575572729111,-0.1203845962882042
0.7632262110710144,0.6253657937049866,0.10913169384002686,-0.12039037048816681
0.7632193565368652,0.6253745555877686,0.10913138091564178,-0.12038779258728027
0.7632163166999817,0.6253799796104431,0.10912711918354034,-0.12038303911685944
0.7632204294204712,0.6253740191459656,0.10912914574146271,-0.12038620561361313
0.7631419897079468,0.6254141926765442,0.1094217523932457,-0.12040849775075912
0.7629926800727844,0.6255581378936768,0.10967805236577988,-0.12037448585033417
0.7629894614219666,0.6255521774291992,0.10970757156610489,-0.12039904296398163
0.7630378603935242,0.625572681427002,0.10909932106733322,-0.120537668466568
0.7629699110984802,0.6256941556930542,0.10894335806369781,-0.1204792857170105
0.7627952694892883,0.6257941722869873,0.1097024455666542,-0.12037567794322968
0.762668788433075,0.6258439421653748,0.11015057563781738,-0.12050914019346237
0.7626602053642273,0.6258671879768372,0.10972707718610764,-0.12082884460687637
0.7626659274101257,0.6258980631828308,0.10933131724596024,-0.1209922581911087
0.7624091506004333,0.6261595487594604,0.1098029837012291,-0.12083006650209427
0.7623019814491272,0.6261879801750183,0.11034825444221497,-0.1208621934056282
0.7621999979019165,0.6263220906257629,0.10990150272846222,-0.1212163046002388
0.7621683478355408,0.6264264583587646,0.10922269523143768,-0.12149012088775635
0.7621802687644958,0.6263702511787415,0.10949163883924484,-0.12146256864070892
0.7619644999504089,0.6265615224838257,0.11036142706871033,-0.12104174494743347
0.7617741823196411,0.6266685724258423,0.11117597669363022,-0.12093991786241531
0.7618024349212646,0.6266661286354065,0.11060185730457306,-0.12130069732666016
0.7618120312690735,0.6266820430755615,0.10961257666349411,-0.12205430865287781
0.7616910338401794,0.6268424987792969,0.10918359458446503,-0.12236945331096649
0.7613890171051025,0.6270650625228882,0.1100817397236824,-0.12230443209409714
0.7611876130104065,0.6271620988845825,0.11119922250509262,-0.12204854935407639
0.761125385761261,0.6271432042121887,0.11183293163776398,-0.12195553630590439
0.7611182332038879,0.6271654367446899,0.11158350855112076,-0.12211340665817261
0.7612043619155884,0.6270325779914856,0.1115107536315918,-0.12232515215873718
0.7611784338951111,0.6270552277565002,0.11154120415449142,-0.12234275043010712
0.7610900402069092,0.6271390914916992,0.11177033185958862,-0.12225387990474701
0.7612534165382385,0.6269809603691101,0.11178666353225708,-0.12203270196914673
0.7612555027008057,0.6269732713699341,0.11180119961500168,-0.12204613536596298
0.7612658143043518,0.6269668936729431,0.11178122460842133,-0.1220322847366333
0.7613479495048523,0.6268711686134338,0.11199377477169037,-0.12181614339351654
0.7613485455513,0.6268725991249084,0.112209752202034,-0.12160724401473999
0.7613325715065002,0.6268953680992126,0.11220245063304901,-0.12159532308578491
0.7613095045089722,0.626973032951355,0.1122206300497055,-0.12132307887077332
0.7612952589988708,0.6269586086273193,0.11249348521232605,-0.12123401463031769
0.7612091898918152,0.6270309686660767,0.11286546289920807,-0.12105374783277512
0.7610996961593628,0.6270717978477478,0.1134524941444397,-0.12098268419504166
0.761078953742981,0.6270934343338013,0.11346647143363953,-0.1209876760840416
0.7610726356506348,0.6271229386329651,0.11317296326160431,-0.12114933133125305
0.7610964179039001,0.6271011829376221,0.11314820498228073,-0.12113595753908157
0.7611208558082581,0.6270630359649658,0.11356998234987259,-0.12078504264354706
0.7610729336738586,0.6271228790283203,0.11394479870796204,-0.12042229622602463
0.7610894441604614,0.627158522605896,0.11381154507398605,-0.12025821208953857
0.7610825300216675,0.6271795630455017,0.11377695202827454,-0.1202254593372345
0.7610828876495361,0.6271660923957825,0.11402634531259537,-0.12005683779716492
0.7610371112823486,0.6272013187408447,0.11429628729820251,-0.11990616470575333
0.7610533833503723,0.6271770596504211,0.11430606991052628,-0.11992043256759644
0.7610476613044739,0.6271889805793762,0.11429281532764435,-0.11990682035684586
0.7610824704170227,0.6271345019340515,0.11410242319107056,-0.12015217542648315
0.76100093126297,0.6271873116493225,0.11415614932775497,-0.12034185230731964
0.7609160542488098,0.6272362470626831,0.11415500938892365,-0.12062441557645798
0.7608071565628052,0.6273074746131897,0.11410465091466904,-0.12098690867424011
0.7608973383903503,0.6271843314170837,0.11376374959945679,-0.12137962877750397
0.7608364224433899,0.6272574663162231,0.11334918439388275,-0.12177082896232605
0.7608247399330139,0.6272704005241394,0.11335496604442596,-0.12177180498838425
0.7607190012931824,0.6273400783538818,0.11381134390830994,-0.12164764851331711
0.7607371807098389,0.6273128986358643,0.11382228136062622,-0.1216636523604393
0.7607289552688599,0.6274101138114929,0.11325206607580185,-0.1217457503080368
0.7606174349784851,0.627604067325592,0.11297795176506042,-0.12169703096151352
0.7604249119758606,0.627813994884491,0.11332149058580399,-0.12149854004383087
0.7602812051773071,0.6278980374336243,0.11390581727027893,-0.12141679972410202
0.7603874206542969,0.6278084516525269,0.1133820191025734,-0.12170542031526566
0.7603491544723511,0.627916157245636,0.11271931976079941,-0.12200361490249634
0.7602777481079102,0.6279366612434387,0.11325786262750626,-0.12184356153011322
0.7602349519729614,0.6278427243232727,0.11418290436267853,-0.12173189222812653
0.7602278590202332,0.6278344392776489,0.11423182487487793,-0.1217724084854126
0.7602547407150269,0.6278238296508789,0.11376587301492691,-0.12209579348564148
0.7602686882019043,0.6278125643730164,0.11374739557504654,-0.12208445370197296
0.7601376175880432,0.6279296875,0.11435196548700333,-0.12173203378915787
0.7600682973861694,0.6279487609863281,0.1149064227938652,-0.1215447187423706
0.7600840330123901,0.6279269456863403,0.11491120606660843,-0.12155448645353317
0.7600915431976318,0.6279531717300415,0.11461665481328964,-0.12164976447820663
0.7600930333137512,0.6279556155204773,0.11460466682910919,-0.12163972854614258
0.7600480914115906,0.6279794573783875,0.11502160876989365,-0.12140395492315292
0.760061502456665,0.6279323101043701,0.11531834304332733,-0.12128173559904099
0.7600266337394714,0.6279718279838562,0.11533307284116745,-0.12128233909606934
0.7600781321525574,0.6279552578926086,0.11500465869903564,-0.12135599553585052
0.7600858211517334,0.6279497742652893,0.1149929016828537,-0.12134833633899689
0.7600632309913635,0.6279228329658508,0.11544157564640045,-0.12120287865400314
0.7599542140960693,0.6280210614204407,0.11585038900375366,-0.12098761647939682
0.7599368691444397,0.628038227558136,0.11586428433656693,-0.1209937259554863
0.7599437832832336,0.6280416250228882,0.11582950502634048,-0.12096558511257172
0.7599628567695618,0.6280248165130615,0.11580812931060791,-0.1209535300731659
0.7598409652709961,0.6281141638755798,0.11604031920433044,-0.12103291600942612
0.7598316669464111,0.6280637979507446,0.11643879860639572,-0.12096966058015823
0.7597017884254456,0.6281086802482605,0.11726821213960648,-0.12075076252222061
0.759537398815155,0.6281911730766296,0.11819219589233398,-0.12045461684465408
0.759377658367157,0.6282080411911011,0.11909328401088715,-0.12048684060573578
0.7594873309135437,0.6279595494270325,0.11918139457702637,-0.12100309133529663
0.7595834136009216,0.6278269290924072,0.1186264380812645,-0.12163111567497253
0.7595431208610535,0.6277673840522766,0.11871643364429474,-0.12210220098495483
0.7594681978225708,0.6277297139167786,0.11940675973892212,-0.12208835780620575
0.7593840956687927,0.6276982426643372,0.12017789483070374,-0.12201659381389618
0.7593073844909668,0.6277192831039429,0.12058769166469574,-0.12198156863451004
0.7593221068382263,0.6276543736457825,0.12079184502363205,-0.12202102690935135
0.7594836354255676,0.6275169849395752,0.12037817388772964,-0.12213243544101715
0.7595135569572449,0.6275677680969238,0.11989262700080872,-0.12216231226921082
0.7595153450965881,0.6275686025619507,0.12004640698432922,-0.1219957023859024
0.7595366835594177,0.627509593963623,0.12062851339578629,-0.12159169465303421
0.7595522999763489,0.6274543404579163,0.12095906585454941,-0.121451236307621
0.7597312331199646,0.6273231506347656,0.12041857093572617,-0.12154676020145416
0.7597538828849792,0.6273079514503479,0.12038000673055649,-0.12152094393968582
0.7597378492355347,0.6272900104522705,0.12069109082221985,-0.1214057058095932
0.7595872282981873,0.6273977756500244,0.12112388759851456,-0.12136060744524002
0.7595348358154297,0.6274487972259521,0.12116801738739014,-0.12138056010007858
0.7596181035041809,0.6274100542068481,0.12075205892324448,-0.1214740052819252
0.7597908973693848,0.6272817850112915,0.12037625163793564,-0.12142898142337799
0.7598597407341003,0.6272117495536804,0.12054239213466644,-0.12119454145431519
0.7597886323928833,0.6272353529930115,0.1211291253566742,-0.12093323469161987
0.7597744464874268,0.6272644400596619,0.12130789458751678,-0.12069149315357208
0.7597696781158447,0.6272788047790527,0.12128590047359467,-0.12067027390003204
0.7597965002059937,0.6272656917572021,0.12143003940582275,-0.12042371928691864
0.7598669528961182,0.627156138420105,0.12199196219444275,-0.11998086422681808
0.7597007751464844,0.6273077726364136,0.12258359789848328,-0.11963660269975662
0.7596871852874756,0.6273223161697388,0.12259224057197571,-0.11963924765586853
0.759650707244873,0.6274474263191223,0.12217866629362106,-0.11963654309511185
0.7596563696861267,0.6274333000183105,0.12234485149383545,-0.11950495094060898
0.7596882581710815,0.627415657043457,0.12260232120752335,-0.11913062632083893
0.7597059607505798,0.6274161338806152,0.12270697951316833,-0.11890729516744614
0.7597001791000366,0.6274257302284241,0.12270081788301468,-0.11889975517988205
0.7596791982650757,0.6274504661560059,0.12270650267601013,-0.11889718472957611
0.7596121430397034,0.6275507807731628,0.12253403663635254,-0.11897430568933487
0.7596418857574463,0.6275618672370911,0.12207289040088654,-0.11920007318258286
0.7597679495811462,0.6274971961975098,0.12139327824115753,-0.11942992359399796
0.7597315907478333,0.6276153326034546,0.12093003839254379,-0.11951088905334473
0.7597306966781616,0.6276184916496277,0.12092454731464386,-0.11950571089982986
0.7595757246017456,0.6277710199356079,0.12133240699768066,-0.11927644163370132
0.7598255276679993,0.6275129318237305,0.12112301588058472,-0.11925586313009262
0.7599999308586121,0.6273834109306335,0.12047107517719269,-0.1194860190153122
0.7602067589759827,0.627173900604248,0.12005661427974701,-0.11968729645013809
0.7602658867835999,0.6270949244499207,0.12035133689641953,-0.11942929029464722
0.7599997520446777,0.6272786855697632,0.12146077305078506,-0.11903446167707443
0.7598772048950195,0.6273699998855591,0.12204686552286148,-0.11873497813940048
0.7599287629127502,0.6273632049560547,0.12174750864505768,-0.11874987930059433
0.7598391771316528,0.6275536417961121,0.12137236446142197,-0.1186998263001442
0.7598373293876648,0.6275914907455444,0.12139955908060074,-0.11848317831754684
0.7596860527992249,0.627696692943573,0.1218651682138443,-0.11841894686222076
0.7597061991691589,0.6276784539222717,0.12184372544288635,-0.11840730905532837
0.7597196698188782,0.6276664733886719,0.12182927876710892,-0.11839940398931503
0.7599016427993774,0.627476692199707,0.1219869926571846,-0.11807546764612198
0.7600286602973938,0.6273720264434814,0.12273085117340088,-0.11703858524560928
0.7601183652877808,0.6273403167724609,0.12448146939277649,-0.11475494503974915
0.7601212859153748,0.6271876692771912,0.12862619757652283,-0.11093515157699585
0.7598677277565002,0.6269712448120117,0.13523462414741516,-0.10592412948608398
0.7591987252235413,0.6269823312759399,0.14290474355220795,-0.10044214874505997
0.758039653301239,0.627400815486908,0.15068769454956055,-0.09506534039974213
0.7566215395927429,0.6279417276382446,0.1584620326757431,-0.09001608937978745
0.7549570202827454,0.6287181377410889,0.16566117107868195,-0.08549781143665314
0.7539418935775757,0.6288986206054688,0.17144902050495148,-0.08163025230169296
0.75327467918396,0.6289548277854919,0.1756964921951294,-0.07825520634651184
0.752687931060791,0.628870964050293,0.17969423532485962,-0.07544684410095215
0.7522466778755188,0.628392219543457,0.18423807621002197,-0.07283320277929306
0.7519393563270569,0.6276487708091736,0.18900074064731598,-0.07016342878341675
0.7520068883895874,0.6263887882232666,0.1936141848564148,-0.06809104979038239
0.7520843148231506,0.6249132752418518,0.19861437380313873,-0.06636975705623627
0.7525628805160522,0.6230106353759766,0.20317190885543823,-0.06502296775579453
0.7533092498779297,0.6213414669036865,0.20579907298088074,-0.0640837773680687
0.7548850178718567,0.6194999814033508,0.20574089884757996,-0.06355415284633636
0.7568597793579102,0.6177903413772583,0.2035849392414093,-0.06365202367305756
0.758934497833252,0.6161962747573853,0.20069308578968048,-0.0635848194360733
0.7607111930847168,0.6149253845214844,0.19798916578292847,-0.06313174962997437
0.7620889544487,0.6142067909240723,0.19514599442481995,-0.06235797703266144
0.762895941734314,0.6138882637023926,0.19331729412078857,-0.061313334852457047
0.7633544206619263,0.613406240940094,0.19346049427986145,-0.05996500700712204
0.7637947797775269,0.6126681566238403,0.19444747269153595,-0.058697983622550964
0.7641385793685913,0.6121485829353333,0.19491606950759888,-0.058086808770895004
0.7643270492553711,0.6119371056556702,0.1947816163301468,-0.05828581750392914
0.7643752694129944,0.6119356751441956,0.194461390376091,-0.05873746797442436
0.7645403146743774,0.6117925643920898,0.19418348371982574,-0.05899825692176819
0.7645254135131836,0.6118113994598389,0.19418436288833618,-0.058993034064769745
0.7644762396812439,0.6117874979972839,0.19451160728931427,-0.05879978835582733
0.7643187642097473,0.6118687987327576,0.1949566751718521,-0.05852600187063217
0.7642961740493774,0.6118891835212708,0.19497829675674438,-0.058536384254693985
0.7642157077789307,0.6120057702064514,0.19491071999073029,-0.058592408895492554
0.7640209794044495,0.6123507618904114,0.19460412859916687,-0.05854788050055504
0.7639967203140259,0.6123868227005005,0.19459174573421478,-0.05852692574262619
0.7639804482460022,0.6124041676521301,0.19460034370422363,-0.05852815508842468
0.7639481425285339,0.6124327182769775,0.19463330507278442,-0.0585448294878006
0.7640841007232666,0.6123127341270447,0.19440940022468567,-0.05876811221241951
0.7642446756362915,0.6122381091117859,0.19389843940734863,-0.05914439633488655
0.7644011974334717,0.6122037768363953,0.19327494502067566,-0.05951652675867081
0.7644191980361938,0.6121894717216492,0.19325299561023712,-0.05950396507978439
0.7644152641296387,0.6121787428855896,0.19335724413394928,-0.05932677909731865
0.7642541527748108,0.6122853755950928,0.19372333586215973,-0.059106096625328064
0.7640849947929382,0.6124337315559387,0.19395193457603455,-0.059006109833717346
0.7640790939331055,0.6124387979507446,0.19395798444747925,-0.05900922045111656
0.7639176845550537,0.6126497983932495,0.19386348128318787,-0.05922050401568413
0.7638089060783386,0.6128396391868591,0.19365394115447998,-0.05934368073940277
