0.9524036173250832
0.1749444153615305
-0.8568460634576596
0.13232304552701035
0.6152080137032282
0.8706821472205429
1.0124196584101581
0.6521120111562924
0.40184599015537587
-0.1704089381996277
0.18913466191229644
0.09409069435029357
-0.34507854059882714
0.06915599591081945
0.7723010387706032
0.9438055291739393
1.0565053769104193
1.8608159330064211
1.352566649729399
1.2930463803664725
1.2321842991535399
1.5440934429462398
1.408456140151037
1.290384147053483
1.1927783743258213
0.7471446999984812
0.7751481782338692
0.4420020210147397
0.5652522397785633
0.6776041676381815
0.774149351257383
0.4843581548297063
0.2629242163748201
0.47092571487419876
0.6442776400151753
0.41329466092235545
0.6033199179067853
0.7548037649985448
0.5012333821816065
0.30132531262111295
0.15117873499593254
0.41306349446419877
0.25634382693710556
0.8744092691663148
1.354036551330678
1.3394707302173048
0.9346161060683963
0.9734519613582283
1.0000789503898622
0.6481963716306174
0.7432317577029239
1.1923167743377046
1.1713186883523432
1.8818227168560169
0.9444735546690834
0.9355861172699287
0.19772079986324553
0.7427899661051107
0.44941896707763607
-2.72098917491786
-1.4550935537891374
1.4620404827010425
-2.155293453090655
-18.255520247054058
-9.160998810109787
-7.926361889070838
-1.3046542660300409
4.222076245423789
-1.6253559083576397
-0.1119388128492147
-0.46343837378140373
1.4046849751258181
2.052895691884486
5.038721186209899
-26.311994113804243
-13.660206213619261
-12.005860301061066
-3.84789869964672
-2.231388650738016
-0.37565081909105624
-0.9382268427586308
2.88757270699285
4.603002752855171
4.2427756226035465
5.601135185034064
-19.686348399126985
-7.912756577853152
-1.580288115103217
2.6796834392404456
5.133871659897091
5.356762876246903
3.8354748131609795
1.0161157739535907
5.025870668949051
8.480101406799783
-12.575988167357508
-4.5886807116164015
-0.9392507423023773
3.101558472284137
-0.06697276411075137
1.068687482088201
1.5704120012745315
-0.29082714054248093
-5.0787427950586475
1.2237247124844304
-17.7469077320275
-10.2442836106259
-6.559518745600623
-6.871354041854881
-1.5481472049981564
2.9398029922457085
7.360680835347194
5.727338153301572
3.7929778842215747
3.5862523600433525
2.9610213319529795
2.041804677829359
1.6679447835813284
1.010163896195438
0.5146349758288973
0.16091032228067836
0.29350021706454615
0.8020274428883029
0.4808802871848089
0.9772997975617929
1.3719551435402364
0.9336353595446747
0.9514221258121485
0.22913834487275708
-1.0618833842741604
-0.5561714927306765
-0.11326264316767243
-0.11387993828751936
-0.8425938635461617
0.08014220257781068
0.07784834092684506
0.07021473504851802
0.059816605505910767
0.04849938027497652
0.037501130319726114
0.396264411359076
1.0394128420522146
0.7843923820265821
1.2984429520009328
1.6787125172980515
0.4695647305873001
0.6160521317451779
0.7390383113409654
0.8374159496103003
-0.9309901857623467
-0.8165130197485571
-1.0480520560712079
-0.45303525853197546
-0.33062800164733136
0.5102920868591527
0.7908552979824709
0.24722376746972607
1.2796684045677034
0.9620953744914478
1.0538499244235162
0.0014383041161338816
-0.0846157893347053
-0.5009060383526815
-0.06599883940967421
-0.8127956213383483
-0.641215715029113
-0.850633300023694
-0.6260231728173369
0.30288968688890416
0.2867968621610768
0.25384972422770247
0.21288005043068287
0.9074734731208034
0.3267279289519679
0.9607386683400575
1.8122594012383455
2.075522055374963
3.7104679098354874
5.293233283407905
1.2664583020989202
0.6482905364323628
-0.16216362676770102
-2.215130107899746
-0.41429193661077823
-1.1387771608822717
-0.9272107168488583
-1.0886604472998072
-0.8148550487915155
0.1601191445541552
-0.18423694803933666
1.3769811141181052
1.09626695496858
0.09457151230802308
0.7705078922440118
0.926239113563656
-0.0756438077319519
-1.5984190172656567
0.5675904903220421
0.4437687627346943
-0.03834763942885522
0.6869362010108175
1.9865202269826518
1.492201829497886
0.6928822858769218
2.2658702421186794
1.264042343237818
-2.8664920003403918
-2.3540867555775282
-1.8435537418603978
1.5747230877734655
1.2937598064541103
2.8570192668516254
-4.465587169412626
-2.05273084627064
1.057518556349259
2.755850434014794
1.0568497939836456
1.1366545260540206
1.9135510053977884
0.2782227510927766
-0.27728183620265134
-2.160148408032168
-0.9936649941700169
1.4553595414008578
4.837303019055729
5.907828542737515
4.747558046385757
3.71730020340326
2.4822942391253773
1.1367004367069549
0.48612283613997576
0.036779264130016226
0.8562390667879953
0.4378494753013899
3.4571015483059937
2.485432575043605
3.5179554012754517
2.8128122908325084
1.8549220301792315
1.4714957657800172
0.08591182640746231
-0.5858766740878694
0.06316862761317399
0.2581249622400393
0.44014943764610515
0.23086076359876662
0.44907714267069737
0.6306138493919242
-0.3314887352059589
0.034609594530352616
-0.026248460868889073
-0.06258340759928568
0.6568230003822588
0.4803440193894051
1.0681371413277483
0.7758878194528006
0.5297384530443676
0.7009367694143371
0.46409246949566346
-0.09099145750277532
0.2237235230768401
0.11540035992901171
0.03784529708452718
-1.4888684403081531
-0.8087949033069031
-0.6044231882502564
-0.42737592545936554
0.45572627864778237
0.7672551777733079
1.3511067305922642
1.7712581996010544
0.9486214538038376
1.3805102540895238
0.9650167118464611
0.25734800663409685
0.44805672461193935
0.6123085452958311
0.3781208053106106
0.2002311900928419
0.8093901948169779
0.5511882516034151
0.7130733118256048
0.46938511356609514
-0.09043998866268571
-0.5161345717187645
-0.4546407596433926
-0.011008987875795628
-0.019294482271640163
0.7143803970781797
0.9110223490288175
1.0422348511949813
1.1217153221367702
0.7935352227851904
1.629358951433018
1.1598716953298736
1.1400063439819914
1.116340835919055
1.0921565857302535
-5.198100497458947
-2.2850816259941418
-2.079332605958168
-2.9697406504786446
1.5478810692146703
2.859365111810871
4.1466386914997555
3.183684746429213
2.691484531812792
1.8776681686956327
1.9520767198673887
0.896800748349724
0.07987977648581335
1.3217756899569344
0.8438554409563872
2.3185205319955626
2.725181873344104
1.897689631115233
1.9618736019439236
-0.944067145096795
-1.336916359003579
-4.138961701513757
-1.7904756519698637
-1.3225056599201876
-1.659362344294838
-1.8990900387121217
-6.1140004224346605
-3.7917656405724025
-0.7594619157422771
0.13774734643761977
-0.3333805088496521
0.7115134995077318
1.4735464336616082
0.8903989078779133
1.1094203347105134
-0.23574761100111563
-0.19854608345689578
-0.8966572975040086
0.4183805923956927
0.34764639789033924
0.6440548876114609
0.8594633399831446
0.2692474476365474
1.2705328413181567
0.19664184451542965
1.5562627348499725
3.714836672223671
4.969911187640138
4.738044037817288
3.347507533077194
3.309724582643975
2.892576154335591
2.1896184796307194
1.6513102248056142
-0.21502633074705058
0.9662530482298575
3.427803201500298
3.8703534588491104
4.160042602838321
3.9615248172370654
3.022427042751767
3.006241868313711
-0.691334891497553
-0.20874577654855164
0.2714158014496222
0.7118934827801436
1.0923199107450148
1.4046082812847802
1.2803809218533844
1.1796767496635876
-1.1102931693138356
-0.2842361932100814
-0.31861311262068015
0.053686040848781036
0.363913215443394
0.24161803147259256
0.513899872181996
1.0931046286163464
0.05607697823132263
0.34407995509491957
0.5780164758852727
0.759232616368266
0.892767083747857
0.9855894423332864
1.4140207533132736
1.3623681543008768
1.3009671072139495
1.606976655685013
1.4627061595537552
-0.50856966142965
-0.1870441500441955
0.11025620617985066
0.36864081499343243
0.5819273646115904
0.3811098657025783
1.3301087110893326
1.3245337500903227
1.295228289791447
2.3593287790664452
0.5806659321384648
1.3853867072064074
1.2843348950643638
1.1979475997038718
0.02162327278599152
0.9617964532977893
1.3486003612115631
1.2758658056395136
1.5767147850566643
0.6942182378789877
0.37115781889144306
-0.9683439577034004
-2.344101827592257
-1.5007749971213098
-0.7696714977805728
-0.16750613906776646
-0.06327268571398319
0.007558669758147313
0.05167489963784193
-0.29326605054408683
-0.5671857261824458
-0.03713176287784514
0.7485904264825073
-0.13068647405727607
0.2717460513497635
0.952357112475492
-0.009468217956074332
-0.03746736409947303
-0.05216663009545605
-0.05730156550935316
0.6813821673100783
0.883808159803859
5.076383693194864
2.3743511719869232
3.4802219121232616
-3.8119707291730958
1.5970985433008194
3.3371345299393744
2.803790309915011
2.6924484657305845
2.9358244541493397
1.988511270383653
-2.8230873727907175
-7.985159379729835
-8.48323554770116
-6.019567733259168
-7.962028114012412
-7.875512400918747
-6.565815667659481
-6.5617222454679975
-3.9337022075639143
-1.1452159932443031
-0.16150609665855173
-0.26501662106366064
6.16813542207154
5.480371461273075
3.215442442854533
2.7664573066485127
0.8679073679101923
0.09937378216414672
-0.8418493180277842
-1.5280775210655322
0.21331821856570565
0.5074981153751291
0.36366349046615154
0.2439637452431954
0.8863840315462024
-0.09430975088440241
-0.49616599288764
-3.3706996281609847
-3.70982291021514
-4.2362032183741185
-4.549746737917072
-5.810069661534423
-1.90735326450036
-6.926332497502289
-6.760284266994636
-2.46004273501544
-3.497281930430745
-1.770155330208347
-1.5657521023674028
-0.7338402406595393
-0.8877079920260181
0.03283461115815056
-0.41522671817805146
1.7567914819054178
1.9109611483059274
2.6732825023255966
2.8118195578461216
2.8347765727452794
2.414255979044798
2.03640549682433
1.7155154464214042
2.562140563938177
0.9987543602482714
1.2482455850211365
1.0967973639191075
1.3621812552377393
2.3177723714295477
1.2112805219426368
2.18047063836835
1.462159656828876
0.15513124329115668
1.7395538099449959
1.5241359198970266
0.9778080117333537
1.6612705966801187
1.8304326912917326
2.3193863431281585
1.5760889510561418
1.7189791483624617
1.4628299829700404
1.2643452296955167
0.7493491777756324
0.36468538103509596
0.461551971811075
0.5654877026341758
0.2969417499789436
0.4724977151350721
0.9939277189376257
-2.2838115313971015
-1.4890978593592483
-0.7896123234084014
-0.5745097039780326
-0.024378368756461266
0.03563303902293538
-0.2979984573271236
0.17297027248925229
0.5360111447936623
0.8020701767406467
0.985763455633235
1.1028627094765062
0.7999298026638153
-0.1922470968512292
-0.2248848627826101
-0.22762124841566456
-0.21126306247196713
0.1845363333317302
0.13051650132572157
0.8234153967765356
0.9856515075978862
0.7205271630888577
0.8645871505290483
0.5976071691439098
0.7502623067081005
0.4977922707515824
0.66753855374478
0.8011175177022472
0.5325637181723106
0.3207070377627762
0.1614771520244537
0.04812293407723718
0.3414235310035858
-0.15845699878724995
0.9338417125655936
1.4189057048989364
3.983421980700421
11.083182531217235
-10.112655595116372
-1.5924701975440474
-1.293188870647211
3.054051359320449
6.061184787255817
6.4291574640203795
-12.62377742447297
-29.595645627454378
-20.786012858598575
-10.594732722891704
-6.421116827163274
-0.9844914445337993
1.6073893288377537
6.672506030273627
6.237931853126161
3.335280287013152
3.052632489457876
3.0797869159768445
3.7485077135700147
1.2411723946728546
-0.3894951566709175
0.9544277605423229
0.9387925691206345
-0.1722737561549298
0.4558175441012272
2.4497787556262325
-0.4335579330494861
3.571535932451912
3.003374202720451
1.0107621546935692
2.014926750553568
0.594476391179759
0.597640693501863
-0.10576465646802025
-7.257238991721722
-4.962674768084562
-0.011373521932008579
5.753338495715974
4.965768012680055
4.153462870348539
6.708260907703388
7.107940742757971
7.64091868031431
7.189098027024784
5.623863251224706
3.979087818430306
3.4413869393573666
-2.4634358408081223
-2.5247260694223073
-2.731502973176291
-12.678996859881515
-8.747045359034665
-4.962699723660693
-5.179633467903617
-3.4588824485336693
-1.7290360701561875
-1.5261829502547837
-1.4357662475156663
-1.0548299896886508
-0.4412968875639937
0.34978461640791164
0.5321819550609873
0.9737335331546382
0.5172055297444161
0.8458157711583121
0.32815009138961326
0.26449843818879976
0.5719847754587046
0.8001131738200815
0.9600158178164885
1.4328277915145318
1.4076989954233947
0.9907547265721778
0.6488114261130447
0.38138645654988146
0.5509405382393021
0.3249761988086739
0.15650074722962246
0.40639136710262425
0.2426297765941064
0.11996662903350641
0.40168201215222177
0.6270723028267329
0.06162277034423547
0.35766780008463533
0.22691546466602258
0.1263400970583794
0.05280710419666079
0.3708752045975957
-0.48439563961749765
-0.4073899995290382
-0.3264060079204147
-0.9867176095413674
-0.3780331188372825
0.11572971501803914
0.1290225918652133
0.12716304469596912
0.8532578928865396
-0.0719789456425477
-0.07191246953857701
-0.0661566788547328
0.31141981513483663
0.23581405630131375
0.5380327275790522
0.39684695589775476
-0.4611897101902019
-0.01908771554451605
-0.02769708186762478
0.33775467455949554
0.2524019597592968
0.5471492480391131
0.7692086232016341
0.559049049699563
0.7506393349432151
0.891405923495515
1.3575884594744168
0.9655662797560134
0.6413579902739075
0.7544078797384499
0.476605120070445
0.6320419376447375
0.3907212436651404
-0.16135896302356617
-1.6825880687501418
-1.352346255436246
-0.2990364802007661
1.2859755241439426
1.0275136790492332
0.045329236239282755
2.212240890586655
1.3003952628348496
0.9106424184368467
0.9609170695190018
1.7331340677830025
-0.9968722002131958
1.3063480953820426
1.2899064999791152
1.256492101279213
-0.2597276666012114
2.2521958632841836
5.321304470960447
4.3124451504042485
3.4123472636421353
3.021115754741162
1.2182477738196047
-0.5443204795248004
-0.008739176526780357
-0.24838705609553913
2.9382322071185394
5.8003142182834235
4.622696328458234
3.9600940462231056
4.1234169510896255
4.216718815301892
3.152343246904821
2.678059669883243
1.58738996498609
1.1413950445988335
1.2172840461027516
1.3273847068471485
0.3442767149644862
-0.3831826853933899
-0.8914471545084612
-0.11488771008165188
-2.0374001703817974
-1.2743850304957391
-0.6119712744982261
-0.43438709240397394
1.1869837278692204
0.9593411199378176
0.7394025296089481
0.9104891562053811
-0.8178208479728186
-0.3183360540475412
0.4704305574357256
1.0899220601085573
0.8159534343967477
0.9468477873888074
1.0337064096119897
1.454549586283346
1.0261999765871175
1.7802988832049587
1.2472246560540192
-0.663156117524327
-0.6595903107078557
-0.6049312534465591
0.21501330179680167
0.5057958215261027
0.3599516420715415
0.607964452166013
0.42700133427443665
0.2788293379980631
0.5318181585499725
0.36004668725527367
0.22299740187296116
-0.2499282947227743
0.12928266969256635
0.0691805272866951
0.0257404644665147
0.3649572309003396
0.2608806212280857
0.1744472949574563
0.4747062859563121
0.7060012484442588
1.2440669633676054
1.2751317880362978
0.9041964833570135
0.229490491062587
-0.2941501300189703
0.42524375309007467
0.2671570524856279
0.14612771983774048
-0.31057666096667913
-0.28499241504439166
-0.24619658557307572
-0.20214263467799906
0.2104168113904375
-0.2037647998008255
-0.1598221097572234
-0.11938178097816311
-0.08436573741164806
-0.05555632804802554
0.33573197795934323
0.26685094502774115
0.5708489841482183
1.1655517054491147
1.607296987234194
1.917379157424047
1.751016654146072
1.2176312182852258
1.1528367724689712
0.36241488849471704
0.8612185632775247
0.8979160398831015
0.5605084780285143
