119,122,121,122,116,121,121,121,121,122,123,122,123,120,122,119,121,121,122,123,124,121,121,120,120,121,122,122,120,121,121,123,120,122,122,121,117,121,122,120,123,122,120,121,121,121,121,119,121,123,121,123,125,121,122,119,121,122,120,121,119,121,122,122,120,120,121,121,117,121,122,120,123,122,120,122,124,121,122,120,120,122,121,122,124,121,120,118,120,121,121,121,118,121,122,122,121,123,121,122,116,122,122,123,120,120,120,123,125,121,122,118,122,121,121,121,124,121,121,119,120,123,123,122,119,121,121,121
121,122,121,122,119,121,122,120,122,119,120,121,122,120,122,118,121,122,121,122,123,121,121,122,121,123,120,121,119,121,121,122,119,122,120,120,117,121,121,122,121,120,120,122,123,120,122,118,120,121,119,122,124,122,121,120,121,122,121,121,118,120,122,121,119,120,123,121,119,121,122,121,122,123,121,123,125,120,121,119,121,121,121,123,123,121,121,119,120,122,121,122,119,121,122,123,119,121,120,122,117,121,120,122,122,121,119,121,123,121,121,120,123,122,121,123,124,122,121,120,120,122,120,122,119,120,122,123
118,119,120,121,119,120,121,120,122,122,120,122,123,121,121,118,121,124,123,123,124,120,121,118,120,123,121,122,120,121,122,121,120,122,121,121,119,120,122,123,122,121,122,122,123,122,121,120,123,121,121,124,123,120,121,118,119,122,122,122,120,121,122,122,122,121,121,122,118,120,120,122,122,122,120,122,124,121,121,121,118,118,120,123,125,121,120,117,121,123,123,121,118,120,121,121,120,123,121,121,119,121,123,119,121,122,119,123,122,121,120,121,122,120,121,122,124,121,122,122,119,121,121,122,118,120,121,119
119,120,123,121,118,121,121,120,122,122,121,123,124,120,121,119,121,122,121,124,123,120,121,119,120,120,121,121,118,121,121,121,121,123,120,122,120,121,122,120,122,121,121,123,124,121,121,120,119,122,121,122,125,121,122,120,121,121,120,122,118,121,121,122,118,123,121,123,118,120,122,122,122,121,121,122,124,121,121,121,121,120,121,123,124,122,120,118,120,122,120,120,118,121,122,121,121,121,121,122,117,121,120,121,121,121,122,122,125,120,120,119,121,121,123,123,124,121,122,122,119,120,120,121,118,121,121,122
118,119,117,121,120,121,122,122,118,121,122,122,123,121,121,117,122,123,122,122,123,121,122,120,118,120,121,120,119,121,122,120,121,121,120,121,116,121,122,122,121,121,122,123,125,121,120,120,121,123,121,123,125,121,121,122,119,120,119,122,119,121,121,119,120,122,121,120,118,121,122,121,120,120,120,122,124,121,120,118,122,122,123,123,123,120,121,121,120,123,121,122,119,122,122,122,120,123,121,122,118,121,120,120,121,120,121,122,122,121,122,118,121,122,122,123,125,121,122,120,122,124,123,122,119,121,122,123
118,118,120,121,117,121,122,120,122,123,121,123,124,120,120,118,122,122,120,122,123,122,121,120,120,122,120,122,121,121,122,121,119,122,122,121,119,121,122,122,120,121,122,122,125,122,122,118,121,121,123,123,124,121,120,119,120,121,120,121,118,121,122,120,121,121,120,121,117,121,121,123,121,122,122,123,124,122,121,118,119,122,121,122,123,121,121,120,120,124,122,121,120,122,122,122,120,117,121,122,121,121,121,122,122,122,121,121,122,121,120,119,122,124,122,121,123,121,121,120,119,123,121,122,119,120,121,120
119,122,121,121,117,122,122,123,121,122,122,122,123,121,122,120,122,122,122,122,126,121,123,119,121,120,120,121,119,121,121,120,120,122,120,122,118,122,122,117,122,123,122,123,124,121,122,121,123,123,121,122,123,121,122,120,119,122,121,122,119,121,122,121,119,120,122,121,118,120,122,122,123,121,121,122,122,121,121,122,123,122,121,122,123,121,121,118,121,123,120,121,118,121,121,121,119,120,121,120,118,121,123,121,122,122,122,122,124,122,122,119,123,123,121,123,124,122,121,120,120,121,121,122,118,121,121,121
120,122,120,121,117,120,121,121,122,122,120,121,122,121,122,122,121,123,122,123,124,121,121,119,119,122,122,121,122,120,120,120,119,118,120,121,118,121,122,120,120,121,121,122,123,121,121,122,122,124,121,121,124,121,120,117,117,121,120,121,118,120,122,120,121,121,120,122,118,120,121,121,121,120,120,122,123,121,120,122,122,122,122,122,123,121,121,120,121,123,123,121,119,121,121,122,121,121,122,121,117,121,122,120,121,121,122,122,125,121,122,117,121,121,121,123,124,121,121,120,121,121,122,121,119,120,121,121
121,121,119,120,118,121,122,121,122,122,122,121,124,120,121,122,120,123,122,122,123,121,121,119,120,119,120,122,119,121,122,119,118,119,119,121,120,122,122,122,121,123,121,122,122,121,121,119,121,121,120,121,125,121,120,119,119,122,122,122,119,120,121,121,121,123,121,121,118,121,121,121,121,122,121,122,122,121,122,122,122,123,122,122,126,121,120,120,121,122,122,122,121,122,121,122,120,120,121,122,118,121,122,121,119,120,120,123,122,121,122,120,121,123,123,122,125,121,120,118,119,121,121,122,120,121,121,121
120,121,119,121,119,121,122,121,122,121,122,121,120,121,121,118,121,122,121,123,124,120,121,120,121,122,121,120,118,121,121,122,121,121,120,122,119,121,122,124,122,121,120,122,123,121,122,120,122,123,122,123,124,120,121,119,118,121,120,122,120,120,121,119,121,122,119,121,118,121,122,122,120,121,120,121,123,121,123,120,120,123,122,122,125,121,121,119,120,121,122,121,120,121,121,121,119,122,120,122,117,120,121,118,122,121,120,123,123,121,121,118,121,120,122,123,124,122,121,121,119,121,122,121,120,122,122,121
120,121,120,121,120,121,121,121,120,121,121,123,124,121,121,118,122,124,121,122,124,121,121,120,119,116,120,120,118,122,122,119,120,121,119,120,119,121,121,122,123,124,120,122,124,121,121,118,120,118,119,121,122,120,121,119,121,122,121,122,119,122,122,121,120,121,121,122,120,122,121,125,122,123,121,121,122,121,120,120,120,122,124,122,124,120,120,119,120,122,121,122,119,121,120,120,121,122,119,122,120,122,122,119,121,120,122,123,122,120,120,119,121,123,121,122,123,120,121,118,119,120,121,121,120,122,122,120
122,122,121,122,119,121,123,122,119,119,120,121,123,121,120,121,122,124,122,122,125,121,122,120,121,123,120,121,119,120,121,122,120,120,119,120,118,121,122,122,122,120,122,122,124,121,121,119,121,123,122,123,124,121,120,120,121,122,121,122,117,121,121,124,121,123,121,122,119,121,123,119,120,119,121,121,124,121,121,118,122,123,122,123,122,120,121,122,119,120,121,121,120,121,123,122,122,122,119,121,118,120,120,121,122,122,122,122,124,122,121,118,120,123,122,124,124,121,121,118,120,121,121,122,119,121,122,122
119,122,122,122,119,120,121,121,120,121,123,123,123,120,121,119,122,122,121,123,125,121,122,119,121,120,120,121,119,121,121,121,120,123,120,121,118,122,122,120,121,122,121,123,123,121,120,121,121,123,121,123,122,121,121,120,119,120,120,121,119,120,121,122,121,122,120,121,119,121,122,121,120,121,122,122,124,121,120,120,119,118,120,122,125,121,122,119,121,123,121,122,119,121,121,118,119,121,119,121,120,122,123,122,122,120,120,121,122,121,121,120,120,123,121,122,123,121,121,117,119,122,123,122,118,120,121,121
119,118,120,121,120,122,121,121,121,120,121,122,125,121,120,119,123,123,121,122,122,121,121,121,121,121,122,121,119,121,123,121,121,122,121,121,118,121,123,124,122,122,121,121,123,120,120,118,121,123,122,123,123,121,119,119,120,121,122,122,119,121,121,121,119,120,119,121,120,121,122,121,121,121,121,123,124,122,121,119,121,122,121,122,123,122,121,116,122,123,121,121,119,120,121,123,120,119,122,123,118,122,121,123,121,122,119,122,124,121,121,121,121,123,122,122,125,121,121,120,121,121,121,123,118,121,121,121
118,121,120,121,118,121,123,120,123,122,122,122,124,122,121,119,122,122,122,122,125,120,121,120,121,120,120,121,119,122,121,124,119,123,120,121,117,121,122,123,119,120,121,123,125,121,121,120,122,122,121,123,124,121,121,119,121,121,120,122,118,120,123,121,120,121,120,122,118,121,122,123,121,121,122,123,123,121,120,119,120,121,121,122,126,120,120,119,119,120,120,121,118,122,122,122,120,122,120,122,119,121,122,121,121,122,121,121,120,121,121,119,122,124,123,123,124,121,122,120,117,114,119,121,120,120,120,119
121,123,119,121,118,122,122,120,123,122,121,122,123,121,121,119,122,122,123,122,125,122,122,120,118,121,120,122,117,121,123,120,120,121,119,121,118,121,121,121,122,122,122,122,125,121,122,121,121,122,121,122,124,121,121,119,119,121,122,123,119,120,120,120,120,122,121,122,119,121,122,122,122,121,120,123,125,121,121,118,119,121,122,122,125,121,121,118,120,121,123,121,118,120,123,121,123,122,121,121,117,121,122,123,119,118,119,123,125,122,121,118,121,125,123,122,123,121,121,121,121,122,121,121,119,120,122,122
121,122,121,121,119,120,122,122,122,122,121,122,124,122,122,115,121,119,121,122,124,120,119,119,122,123,121,121,120,121,122,120,122,121,119,121,119,120,123,122,122,122,122,122,123,121,121,119,121,123,122,122,123,121,121,120,119,122,121,122,118,120,121,121,121,122,122,122,120,121,121,120,121,122,121,122,124,120,121,120,121,121,120,122,124,121,121,119,121,123,121,122,119,122,122,121,120,121,120,121,119,121,122,123,122,122,121,122,125,120,121,120,121,123,122,122,126,121,120,118,118,118,119,120,117,121,122,121
121,122,119,121,119,121,122,121,123,123,122,123,121,121,118,118,122,121,121,123,125,121,120,120,120,123,121,122,119,120,122,121,120,121,122,122,119,121,122,120,123,122,122,123,125,121,122,119,120,122,122,122,123,121,121,121,120,120,121,121,118,120,121,123,121,123,120,121,120,122,121,120,121,122,121,122,123,121,121,121,120,124,121,122,123,121,120,120,118,120,120,121,120,122,121,120,122,121,119,121,116,121,122,118,122,122,122,122,122,121,121,118,122,122,121,122,125,122,121,121,119,120,120,121,120,121,121,121
121,121,123,121,120,120,122,121,120,121,121,122,122,120,120,119,120,122,121,123,125,122,122,120,119,121,121,121,119,122,122,123,118,119,119,121,121,121,120,119,123,122,122,121,123,121,122,120,122,122,121,123,122,121,121,120,118,120,121,120,119,121,122,121,120,122,121,122,120,122,121,119,120,122,122,122,122,120,122,121,122,122,122,122,124,120,121,119,120,122,122,122,119,122,122,123,121,124,120,120,119,121,122,122,119,118,120,122,124,121,121,119,122,122,122,123,126,121,122,118,119,121,122,121,117,121,123,120
120,122,119,121,120,122,122,123,123,122,121,122,121,121,121,119,122,122,123,122,125,121,121,119,119,121,122,122,119,121,121,121,118,121,120,122,119,121,122,121,123,122,122,122,123,122,121,119,120,122,123,123,125,121,121,122,121,120,120,123,117,122,122,122,121,123,121,122,117,121,122,122,121,120,120,121,121,121,120,119,123,124,122,122,126,121,121,121,121,123,122,122,118,120,121,121,117,117,120,121,121,122,122,120,120,123,122,122,123,121,121,119,121,123,121,122,123,120,120,120,119,120,121,121,120,122,122,121
120,123,121,122,119,121,121,121,122,123,122,124,122,121,121,120,122,121,122,122,123,121,121,121,119,120,121,121,118,121,121,120,121,122,121,122,118,120,121,118,121,122,120,123,123,122,120,119,120,122,123,122,126,120,120,121,122,120,120,122,118,120,121,120,121,122,120,122,118,120,121,123,122,123,120,122,123,121,122,119,119,119,122,122,126,121,121,118,119,121,121,122,119,121,121,122,121,122,121,121,119,121,120,122,122,121,121,121,123,121,121,119,123,122,121,122,126,121,121,119,119,121,122,121,116,121,122,121
119,122,121,121,119,120,124,122,121,122,122,123,125,120,117,118,123,124,121,122,123,121,122,119,118,118,120,122,119,122,121,120,121,123,120,123,119,121,120,120,121,121,121,122,123,120,121,119,122,123,122,122,125,121,121,118,119,120,122,121,119,121,122,122,119,120,120,122,118,121,121,121,121,122,122,123,124,121,121,118,123,121,121,123,124,121,121,119,119,121,123,121,119,121,121,124,121,122,122,121,119,121,123,121,123,122,121,123,124,121,122,118,119,121,123,123,123,120,120,121,120,120,121,122,118,121,121,122
121,123,119,121,119,120,121,121,121,121,121,122,123,120,121,119,120,121,121,123,124,121,120,121,119,121,122,122,118,121,121,123,121,122,123,122,120,120,121,121,121,121,120,122,124,122,122,119,120,121,123,122,122,121,120,120,121,122,120,121,117,121,122,121,120,120,119,122,120,122,121,121,122,120,120,123,124,120,120,119,121,122,122,122,123,121,121,121,122,121,122,121,117,121,122,122,120,121,122,121,119,120,121,121,122,123,121,122,123,122,122,121,120,123,123,123,123,121,120,119,121,120,120,120,119,121,121,121
120,122,121,122,120,121,121,121,120,121,119,123,126,120,121,118,121,123,122,122,121,122,120,117,118,120,121,122,119,121,121,122,120,121,121,121,119,121,122,121,119,120,120,122,124,121,122,116,122,122,122,123,126,120,120,120,121,122,122,122,116,120,121,119,121,123,121,122,120,120,121,119,120,119,120,123,123,120,121,118,122,123,121,123,125,122,122,119,120,120,122,121,118,121,120,124,121,122,119,122,119,121,122,119,120,122,120,123,125,121,121,120,120,122,122,122,125,122,120,120,120,123,121,121,116,120,121,122
121,121,121,121,117,121,121,122,121,122,122,122,123,121,121,120,120,119,121,121,124,121,122,120,120,123,122,120,120,120,120,120,120,121,119,121,119,121,121,120,122,123,122,123,121,121,121,122,121,121,122,124,125,121,120,119,120,121,122,121,117,121,122,122,121,123,121,122,120,121,121,121,122,123,123,122,123,121,122,120,121,122,122,123,123,121,121,121,119,120,120,121,119,120,121,121,120,121,121,122,119,121,121,121,121,121,121,122,124,121,121,120,120,122,121,123,124,121,120,121,122,122,122,121,119,120,121,120
121,120,119,121,120,121,122,120,121,120,119,121,124,122,121,118,119,121,123,123,123,121,121,121,120,121,122,122,119,120,122,123,120,119,122,122,120,121,121,121,121,120,121,122,124,121,121,121,121,122,121,123,124,121,121,118,119,121,121,122,119,120,122,122,121,122,119,121,117,121,121,121,121,121,122,122,124,122,121,118,121,123,122,122,124,120,120,119,121,123,121,121,118,120,121,122,120,120,121,121,118,121,122,122,120,118,121,123,124,120,121,120,123,123,121,123,123,122,121,120,121,122,121,122,119,120,121,124
119,120,121,122,120,121,122,120,121,122,121,124,124,120,120,119,120,121,121,122,124,121,121,119,120,121,120,121,119,121,122,122,121,122,122,122,120,121,121,122,122,123,119,122,124,121,122,119,123,122,121,122,125,121,121,120,120,121,122,121,118,120,121,122,120,121,121,122,120,121,121,120,120,120,120,123,124,120,120,117,121,124,122,121,123,121,121,119,120,121,121,122,118,120,122,122,120,120,120,122,120,121,121,120,124,125,122,123,125,121,121,119,118,116,122,122,121,120,121,121,120,122,120,121,119,121,122,123
121,124,121,121,119,121,121,121,121,119,120,122,124,121,121,119,122,121,120,122,123,121,120,120,119,120,122,122,120,121,122,120,120,123,122,122,118,119,121,121,121,122,121,123,125,121,121,116,119,122,121,123,124,121,121,122,121,121,121,120,118,120,121,123,118,121,120,121,119,120,122,122,121,121,120,122,123,121,121,119,120,123,121,122,123,121,121,122,120,124,122,122,119,121,122,121,119,117,119,121,119,121,121,119,121,123,120,121,123,121,121,116,123,122,122,124,123,122,122,122,120,120,122,122,116,121,122,121
119,119,120,122,120,121,122,122,122,123,122,122,126,121,121,120,123,123,120,122,126,121,121,120,120,122,122,121,116,120,121,124,119,120,121,122,118,120,122,119,121,122,120,122,122,121,121,121,120,121,121,122,125,122,122,121,120,121,120,122,120,121,121,124,120,121,121,121,119,120,121,117,122,121,122,123,123,121,122,122,120,121,122,122,123,120,120,119,120,121,121,122,116,121,122,123,120,122,120,121,119,122,121,121,121,121,122,123,124,121,120,119,118,121,122,121,122,121,119,119,121,122,121,121,120,120,121,120
120,119,120,121,119,121,122,120,123,125,121,123,124,121,121,118,120,122,121,122,124,121,121,119,119,117,121,121,117,121,121,123,121,124,122,122,120,121,122,121,121,122,121,123,125,120,122,119,122,122,122,124,123,122,121,121,120,123,120,121,117,121,122,123,118,121,119,121,119,121,121,119,122,122,120,121,124,121,121,119,120,121,120,122,125,121,121,120,119,122,121,122,118,120,121,122,120,122,120,122,120,122,122,121,120,120,120,123,126,121,121,119,121,122,120,122,124,120,120,119,120,123,122,121,117,122,123,123
121,122,121,122,121,122,122,122,120,123,121,122,125,121,121,117,122,121,121,123,123,121,120,118,122,121,121,121,118,121,122,124,120,121,123,121,119,120,122,123,121,121,120,123,126,121,120,120,120,122,123,122,124,121,121,117,118,122,119,121,118,122,121,121,121,117,120,120,118,120,121,119,122,123,122,122,125,120,121,118,120,122,121,123,123,120,120,119,121,124,121,122,117,120,121,123,120,123,120,121,120,121,121,123,121,120,120,122,124,121,121,118,121,122,121,123,121,121,121,121,120,123,120,121,117,120,121,122
119,120,120,122,122,122,122,120,123,122,123,123,124,121,121,116,122,122,120,122,123,122,122,121,121,121,121,121,118,121,122,122,119,122,122,122,119,121,121,120,122,123,121,124,125,122,122,118,121,122,121,122,122,120,121,119,121,121,119,120,117,121,122,123,121,121,122,121,118,121,121,120,122,122,121,123,126,120,120,118,119,121,123,123,121,121,122,121,120,121,119,120,118,121,122,121,120,123,121,121,120,121,122,118,123,120,122,122,124,120,121,119,122,121,120,122,125,122,121,122,121,122,119,120,119,121,122,122
120,123,120,122,120,120,121,119,122,122,123,123,123,120,120,119,121,121,122,122,123,121,121,120,120,121,120,122,116,121,121,121,121,122,121,121,122,121,122,121,121,121,123,121,123,121,121,122,120,120,121,123,123,121,120,120,120,122,122,122,116,121,122,123,121,122,119,120,120,121,120,119,122,122,122,123,124,121,121,118,122,123,120,122,123,122,121,119,119,119,122,121,118,121,122,122,120,121,120,122,121,121,121,122,120,123,122,122,125,121,122,120,121,119,120,123,123,120,120,119,120,123,120,121,118,121,122,120
121,122,120,122,120,121,121,120,120,119,121,122,123,121,120,118,121,124,123,122,126,121,121,120,120,121,121,122,118,122,123,123,120,122,121,122,118,121,122,119,121,123,120,122,124,120,121,119,122,120,121,121,123,122,121,120,119,121,121,121,116,120,121,122,121,121,121,122,120,121,121,123,121,122,121,123,124,120,119,120,121,122,122,123,125,121,121,119,120,120,122,121,116,121,122,121,121,120,121,121,119,121,121,120,123,123,121,122,125,121,122,121,120,122,122,122,124,120,121,119,120,122,121,122,117,122,122,123
119,119,119,122,120,120,120,118,122,122,123,124,124,121,121,120,120,122,121,123,123,121,121,121,120,120,121,121,119,121,122,124,120,122,120,121,121,121,122,118,122,120,122,122,123,121,121,120,122,126,122,122,122,120,121,120,121,118,121,120,117,121,122,122,118,123,119,122,120,120,120,123,122,122,122,121,124,121,121,119,123,123,122,123,122,121,122,119,117,119,119,121,118,121,122,121,121,124,121,121,121,120,122,121,122,120,121,122,124,122,121,120,121,123,121,123,122,120,121,121,120,124,121,120,118,121,122,120
120,120,121,121,119,120,120,119,122,122,121,123,125,122,120,119,120,121,121,123,124,121,120,119,120,121,121,121,118,121,122,121,121,122,121,121,119,121,122,122,121,122,121,122,125,121,122,121,120,122,120,123,125,120,121,120,120,122,119,120,118,121,122,121,119,119,119,121,120,121,121,118,120,122,123,123,123,121,122,118,122,122,120,121,124,121,121,122,118,119,119,120,119,121,122,122,121,125,121,121,120,121,122,120,121,118,121,122,124,120,120,119,121,123,121,122,123,121,122,120,122,121,121,122,116,122,122,122
121,121,120,120,120,121,122,122,120,123,123,123,125,120,121,119,120,123,120,122,124,122,122,120,119,119,121,121,117,121,122,122,120,122,122,122,119,121,122,120,121,123,122,122,124,121,121,119,122,119,120,121,124,120,121,119,120,121,120,121,118,121,122,121,121,123,121,122,119,121,122,122,121,120,119,122,125,121,122,119,121,122,121,122,123,121,121,122,119,121,121,121,119,121,121,121,122,122,120,122,120,122,121,121,121,122,121,123,125,121,121,118,122,120,120,122,123,121,121,119,121,122,122,122,117,121,121,121
119,121,121,122,119,120,121,121,125,120,122,122,127,122,122,121,121,124,122,123,122,120,120,118,119,116,118,121,117,121,121,121,121,124,119,121,120,121,121,120,123,123,122,123,127,121,122,121,122,121,120,122,122,121,121,122,118,120,120,122,116,122,122,122,122,122,121,122,120,121,121,121,120,121,120,122,123,121,121,120,120,121,121,121,124,121,122,119,121,122,120,122,119,121,121,123,121,121,121,121,120,121,122,119,120,121,121,122,127,121,121,117,121,122,121,123,124,121,122,121,120,121,121,120,116,121,122,124
120,121,121,122,121,121,120,122,121,125,123,122,125,121,120,118,122,121,122,122,124,121,122,120,120,121,121,121,117,121,122,123,120,122,121,121,121,121,121,121,122,122,121,122,122,121,121,119,120,121,120,122,123,121,121,121,119,120,120,122,119,121,121,121,119,121,120,122,120,122,122,119,122,123,123,123,124,120,121,119,121,120,122,122,124,121,121,123,120,123,120,122,117,121,122,123,119,121,121,122,118,120,121,119,121,122,121,122,123,121,121,117,119,122,121,123,125,121,121,118,121,123,121,121,119,121,123,122
121,122,119,122,117,121,122,121,120,121,121,123,124,120,120,115,119,119,121,123,123,121,120,121,119,121,122,121,118,121,122,123,121,123,121,122,121,121,122,122,122,122,121,122,122,121,122,119,121,121,122,121,123,121,122,122,120,119,121,121,120,121,122,121,120,122,121,122,119,121,122,121,121,121,121,123,124,121,122,118,122,122,121,122,123,120,120,121,118,121,121,121,117,120,122,122,121,119,121,121,122,120,121,119,121,121,121,123,123,121,121,118,122,123,121,122,125,121,121,119,120,122,121,121,116,121,121,123
120,121,119,121,121,121,122,120,122,121,120,122,125,122,122,119,121,122,122,122,123,121,122,122,120,123,121,120,117,121,122,121,120,119,120,121,119,120,120,120,121,123,119,122,124,121,122,120,120,121,123,122,122,121,121,120,120,121,122,121,117,121,121,122,119,122,120,122,120,120,121,122,123,124,122,122,125,122,122,119,120,119,120,122,123,121,121,122,119,122,121,121,115,121,122,123,121,122,120,122,119,121,122,121,122,122,122,123,124,121,120,119,121,120,120,122,126,121,121,119,119,122,123,121,119,120,122,122
122,123,120,121,118,121,121,121,122,120,122,122,124,121,121,117,120,123,122,121,123,121,121,121,120,121,120,122,116,121,122,125,122,122,121,122,122,122,121,121,122,122,123,123,122,121,120,118,119,122,121,121,123,121,122,119,120,123,121,121,117,121,122,122,120,121,121,121,120,121,121,122,121,121,121,123,123,120,121,120,122,121,120,123,123,120,120,119,119,122,121,122,119,121,121,123,121,122,121,122,118,121,122,121,120,122,122,122,124,121,121,119,123,118,118,121,122,121,121,121,119,121,122,121,116,121,122,121
122,122,121,122,122,121,122,120,122,122,121,122,124,120,120,117,122,122,123,122,123,121,121,121,117,116,120,120,116,121,121,122,121,122,119,120,119,121,120,120,124,125,123,122,124,121,122,119,122,120,121,122,124,121,123,122,117,122,121,121,117,122,121,119,121,120,121,122,120,120,121,120,119,121,121,122,124,121,121,120,122,123,120,122,123,121,121,120,119,121,122,121,119,121,122,121,119,121,120,123,120,121,120,121,123,123,122,123,126,121,121,119,121,123,121,122,124,121,122,119,120,121,121,120,117,121,122,123
121,122,120,123,120,121,122,120,120,121,120,122,126,121,120,116,120,120,120,121,123,121,121,119,120,121,122,122,117,121,122,122,122,122,121,122,120,121,121,121,121,122,120,123,124,121,121,120,123,121,122,122,125,122,121,121,117,120,121,121,114,121,121,122,120,122,119,122,120,122,121,121,122,123,121,122,124,121,121,119,121,121,122,122,123,122,121,118,119,122,121,120,117,120,122,121,118,117,119,121,118,121,122,121,121,122,122,122,124,121,122,119,121,121,121,123,124,121,120,120,120,120,121,122,115,121,121,121
121,123,122,121,120,120,121,119,121,121,120,123,126,121,122,120,121,122,121,122,122,121,121,121,119,120,121,121,116,121,122,120,120,122,123,122,121,121,121,121,121,120,120,121,124,121,122,119,121,123,120,123,123,122,121,119,121,122,119,120,118,122,122,123,121,122,120,121,119,121,122,120,121,122,120,123,126,121,120,119,122,121,122,123,125,121,121,120,121,120,122,121,118,121,122,123,120,121,121,122,121,121,121,118,120,121,123,124,125,121,120,117,121,122,121,123,124,122,121,120,118,119,119,120,118,121,122,122
120,122,120,122,120,121,121,120,122,121,121,122,124,122,122,120,120,122,122,123,123,121,121,118,119,122,121,122,118,121,122,122,120,120,120,122,120,121,121,119,123,122,121,122,124,121,121,118,121,122,121,121,120,122,121,120,120,120,120,121,117,121,122,124,121,121,121,121,121,121,122,120,119,121,122,123,125,121,121,119,121,120,120,122,123,120,121,119,121,121,121,121,116,122,123,122,118,122,120,122,119,121,122,121,121,121,121,122,125,120,121,119,121,121,120,122,123,122,119,119,119,122,119,121,118,120,122,120
120,120,122,122,122,121,122,121,122,122,121,122,125,121,121,118,122,124,123,123,122,121,121,119,120,121,120,121,115,121,122,122,120,121,120,120,119,121,121,122,124,125,123,122,125,121,122,120,119,118,120,122,123,120,121,121,119,120,119,120,116,121,122,123,121,123,122,123,121,121,122,122,122,122,120,123,124,121,121,119,119,121,122,122,123,121,121,118,120,121,120,121,119,121,122,121,120,121,121,122,120,121,120,120,121,123,121,123,127,120,120,120,118,119,121,122,122,121,121,120,121,122,121,121,117,121,122,121
121,123,121,122,120,122,121,120,122,122,122,124,125,122,121,119,121,122,122,122,122,122,121,121,120,121,120,121,117,120,122,122,119,120,119,121,119,121,121,118,121,121,122,123,123,121,120,118,122,122,122,122,123,121,121,121,118,121,121,121,116,120,120,122,120,121,121,122,121,121,122,119,122,122,121,122,123,121,121,119,121,123,122,123,123,120,120,120,120,121,120,122,118,121,121,121,120,121,121,122,122,121,121,122,121,121,122,123,123,121,120,118,120,123,122,123,123,121,120,119,121,121,120,121,117,121,122,125
120,121,121,121,120,121,120,119,123,122,121,123,124,121,121,121,120,122,122,121,124,120,121,121,120,122,122,121,117,122,121,119,120,121,119,122,121,121,122,121,123,121,123,123,126,121,121,121,120,124,121,122,123,121,121,119,119,117,119,120,118,121,123,123,120,124,119,122,118,120,122,120,122,122,121,122,126,121,121,120,121,121,120,122,122,121,120,122,123,123,121,121,116,121,122,124,121,122,123,122,119,119,120,121,121,120,120,122,123,120,120,120,121,123,122,122,123,122,121,119,119,120,121,121,118,121,123,121
121,120,119,122,119,121,121,122,120,125,119,122,124,121,121,120,119,118,122,123,123,121,121,120,119,121,121,121,118,120,121,123,123,121,120,122,121,122,122,121,122,122,122,122,127,122,121,117,122,122,120,122,122,121,122,119,121,121,121,121,117,121,123,123,122,122,121,123,120,121,120,122,121,121,120,123,125,120,119,116,118,119,121,122,123,121,121,119,121,122,121,122,118,128,128,124,123,123,121,122,121,121,120,122,125,123,122,123,127,120,120,120,118,119,121,122,122,121,118,114,125,122,119,120,116,121,122,122
122,123,120,122,123,121,118,122,125,122,122,123,123,122,121,120,121,122,122,122,123,121,122,118,119,122,122,121,116,121,122,122,120,122,121,122,122,122,122,121,119,120,120,122,125,121,121,116,121,121,121,122,123,121,121,122,121,124,122,122,117,122,121,121,120,121,120,120,119,119,120,120,122,122,122,122,125,121,124,120,119,121,121,122,123,121,120,119,121,120,121,121,117,122,122,124,121,122,120,121,122,120,121,121,126,123,122,123,125,121,121,119,115,118,120,122,123,120,122,119,122,121,121,122,118,120,122,124
122,121,123,121,122,122,122,119,122,123,122,123,124,121,120,120,121,122,120,121,122,121,121,119,119,120,121,121,118,121,121,120,121,121,121,122,120,120,122,125,122,120,122,122,127,121,120,117,121,123,122,123,122,121,122,118,120,121,121,121,117,123,121,123,121,121,121,121,119,118,121,122,122,122,120,122,124,115,118,120,122,123,123,123,122,124,123,120,120,122,120,122,118,126,125,122,121,120,120,121,121,121,121,120,122,120,120,123,124,120,119,118,121,122,123,123,123,123,126,119,120,123,119,121,116,120,121,122
122,120,122,123,121,124,116,120,122,122,122,122,124,118,123,121,120,121,121,123,125,121,121,119,119,119,119,122,118,122,122,122,121,121,120,122,120,121,122,120,122,122,120,122,125,122,121,120,117,121,121,122,122,120,121,119,120,121,120,120,118,122,122,120,121,122,121,122,120,121,122,122,121,122,122,123,126,121,119,119,119,121,121,121,119,120,122,120,119,121,122,121,120,121,120,120,123,122,121,122,121,124,125,124,121,121,120,122,124,117,117,117,121,122,120,122,123,122,121,116,119,121,119,121,117,120,123,125
122,121,121,122,123,122,121,120,122,124,121,123,124,119,122,120,120,119,120,122,122,122,119,118,119,121,120,121,115,121,122,124,121,122,122,122,120,121,121,121,122,122,121,122,124,118,123,123,118,121,122,123,123,123,119,112,120,124,121,122,119,119,120,119,122,120,120,120,120,119,124,122,120,123,123,122,122,122,119,120,120,119,117,118,116,111,119,120,117,122,121,122,120,123,120,118,122,123,122,123,122,124,122,122,121,121,120,122,125,119,120,119,120,122,122,123,123,124,122,121,120,122,122,121,118,121,122,121
119,119,118,120,119,119,119,118,121,124,121,123,128,121,121,120,120,121,123,121,121,120,121,123,118,120,120,121,118,123,122,120,119,119,122,122,122,119,119,115,122,121,121,123,124,125,120,120,116,118,120,120,121,118,120,122,122,124,121,123,120,123,117,121,120,122,120,121,118,119,119,119,123,122,120,123,125,122,120,119,119,121,122,122,121,119,122,120,122,121,121,122,119,122,121,121,120,122,119,117,115,118,120,120,123,123,120,119,125,121,120,118,120,122,121,123,124,122,121,119,116,120,119,120,119,121,121,121
125,124,122,122,123,122,124,123,116,118,119,119,120,119,118,119,118,120,121,122,122,119,119,118,124,122,122,122,118,122,124,122,123,123,119,121,119,119,118,120,116,121,121,122,125,123,116,120,126,122,121,121,120,121,121,121,121,121,122,124,119,121,122,123,123,122,121,120,120,117,123,121,127,122,121,123,124,122,123,120,119,121,121,123,120,118,117,118,111,115,121,113,111,118,119,119,114,120,119,119,122,123,125,120,129,124,121,123,127,124,125,121,120,122,121,121,122,117,115,120,122,120,120,121,117,123,130,123
124,122,119,119,121,120,120,119,121,121,124,125,124,120,122,120,116,119,118,119,122,121,119,115,121,121,121,123,116,121,123,125,122,122,123,122,119,122,123,123,123,122,117,119,123,118,125,120,120,122,121,121,123,118,121,120,119,119,119,121,114,119,116,119,120,121,123,120,119,119,121,119,123,122,120,123,126,122,121,120,128,124,122,122,127,126,129,124,124,123,116,118,115,111,121,121,116,117,123,111,103,115,120,117,134,127,122,123,133,126,124,122,147,130,122,125,123,120,116,126,96,114,120,124,122,127,128,122
35,92,109,112,106,114,107,95,144,132,126,125,130,126,124,122,137,129,122,123,126,123,126,133,120,122,123,123,120,122,125,122,122,123,121,123,120,121,120,119,117,119,120,122,123,120,122,117,125,120,126,125,126,124,123,127,120,123,118,117,116,119,120,122,121,120,124,124,120,121,120,119,121,122,120,123,125,121,116,119,119,120,122,127,124,121,119,116,121,122,121,125,121,122,122,123,121,122,122,121,119,119,118,118,146,133,125,139,146,131,126,128,52,98,115,117,98,98,109,101,127,122,126,131,131,128,128,126
128,125,120,123,126,123,117,120,170,140,127,128,130,126,124,134,52,90,108,111,109,111,111,98,101,113,119,120,116,117,117,111,145,130,123,121,122,123,129,130,126,128,125,123,127,121,124,124,119,120,117,120,122,120,128,120,124,122,122,116,112,120,124,123,121,122,121,125,124,127,121,119,119,120,121,118,123,122,122,118,121,123,122,123,123,116,116,118,119,120,121,123,119,126,126,124,120,120,117,127,125,123,124,119,124,124,124,129,122,121,117,122,116,121,122,126,125,131,134,120,109,120,118,121,118,120,119,120
131,123,122,121,124,122,121,120,136,124,123,123,126,123,122,124,100,119,118,118,120,118,113,114,132,125,121,122,119,118,122,124,131,125,122,124,124,124,117,122,124,124,122,118,121,121,123,121,119,122,120,120,122,121,117,119,123,121,122,121,114,119,120,124,125,123,119,118,120,122,123,126,118,121,121,124,122,118,124,113,128,123,122,124,124,124,119,123,112,119,124,133,120,122,121,122,121,124,123,124,122,119,120,121,123,119,115,112,116,116,119,118,125,123,125,127,126,121,118,120,113,118,119,123,123,127,124,119
130,124,120,130,122,117,120,125,101,113,118,115,120,120,118,113,123,121,120,121,123,120,121,119,121,125,126,133,122,127,129,126,100,114,119,115,115,116,111,114,133,126,121,122,126,121,123,118,133,125,122,123,125,121,127,126,126,125,122,123,119,122,123,123,130,127,122,129,124,122,127,127,123,122,123,119,121,121,119,118,124,124,125,125,126,123,124,122,121,122,122,126,123,124,121,124,119,119,115,123,132,120,119,118,116,119,122,86,90,111,115,117,119,122,123,127,127,124,128,122,122,122,119,122,123,123,120,123
125,124,123,127,125,125,126,120,123,122,122,122,124,121,121,116,125,121,120,122,121,120,121,122,132,126,122,122,119,122,123,127,145,126,120,119,124,121,124,133,0,91,117,114,110,112,97,81,151,132,126,126,125,123,122,130,132,125,119,123,121,124,124,129,123,123,121,123,123,121,117,120,121,122,122,137,137,128,124,120,116,118,121,97,110,114,119,118,124,122,123,114,111,122,121,123,124,123,123,132,129,125,126,122,120,119,116,115,132,125,119,117,116,117,116,100,101,114,122,118,119,121,125,129,118,118,118,119
121,123,121,125,126,126,124,120,120,122,119,124,127,123,120,118,163,133,123,125,129,127,130,130,72,100,112,94,83,98,107,104,142,129,124,130,131,125,127,125,133,124,121,125,129,123,123,127,108,119,121,123,122,121,119,114,129,122,120,121,118,119,123,121,128,121,121,117,120,120,120,122,123,123,120,122,123,120,123,119,117,121,117,119,122,119,120,120,119,124,123,128,121,126,117,120,122,122,123,122,123,122,122,120,122,122,121,120,123,121,121,119,128,122,116,119,123,124,119,122,97,114,121,112,100,108,116,113
125,123,121,126,131,128,123,119,126,121,123,125,128,124,122,123,127,124,122,121,124,126,121,121,120,122,123,128,117,115,115,122,121,120,121,115,115,117,126,118,109,122,121,120,127,125,122,115,110,122,122,125,124,124,121,116,132,122,121,127,122,121,121,126,128,125,120,122,119,123,126,124,131,122,120,122,125,122,119,120,119,120,122,128,125,126,124,124,111,117,114,114,97,108,113,121,122,124,130,132,123,120,116,119,124,121,119,125,129,126,125,121,123,124,122,123,128,125,121,121,119,121,121,120,111,114,118,119
120,121,122,128,127,122,122,119,119,119,120,118,125,123,124,118,126,125,123,125,125,123,122,123,131,124,122,130,125,124,125,130,98,114,116,108,111,117,117,110,132,127,124,126,128,122,122,121,145,127,124,124,126,123,123,131,108,117,118,128,120,123,116,114,111,114,116,109,109,115,118,111,137,125,121,127,131,124,125,127,126,123,123,124,124,126,127,123,119,121,120,124,123,126,121,123,123,123,121,118,119,123,121,121,122,121,121,122,122,118,121,119,121,121,121,124,125,124,122,120,137,127,120,125,125,119,118,128
111,117,121,107,103,118,121,115,131,126,122,129,132,127,122,121,125,122,121,122,124,121,123,124,123,124,122,126,125,122,115,123,122,122,122,118,112,119,121,122,123,122,118,117,123,119,124,115,135,122,122,126,122,119,122,123,114,121,121,123,120,121,121,122,155,133,124,134,135,125,126,130,49,91,115,96,100,113,111,102,111,122,121,126,126,125,122,117,140,129,123,125,121,125,123,130,152,132,122,122,123,123,112,129,67,99,118,120,114,113,118,96,137,127,123,126,130,125,124,125,127,124,121,123,121,124,123,126
120,121,121,124,121,122,121,121,120,122,121,125,134,131,123,118,120,122,120,112,110,111,120,119,118,122,121,120,120,120,120,121,122,124,120,123,126,124,124,122,120,123,123,116,119,120,114,119,119,120,123,113,107,120,118,118,125,123,121,125,125,124,128,124,116,121,120,123,123,126,120,117,124,122,122,123,126,121,122,118,146,127,122,126,129,128,124,129,114,117,120,117,109,120,120,118,92,116,119,122,119,118,120,113,137,128,123,124,128,123,125,124,129,124,122,122,124,119,119,125,119,121,122,125,121,123,121,124
134,126,117,114,119,122,120,122,114,118,124,123,116,116,122,115,128,124,124,127,129,123,122,120,125,124,123,123,120,125,127,124,123,122,115,118,124,127,122,124,121,123,126,124,114,101,116,121,122,122,122,124,128,127,122,121,134,125,118,123,120,123,123,123,102,115,118,120,118,120,121,116,113,119,122,121,122,117,117,116,125,123,122,124,124,120,119,122,126,122,120,123,118,122,124,125,107,121,119,121,119,114,111,115,142,127,123,123,129,130,125,126,121,119,120,123,121,118,126,118,134,122,116,119,109,114,112,119
135,127,123,126,124,127,128,123,130,125,123,124,127,123,124,123,127,124,121,126,124,122,123,126,117,123,121,115,112,120,120,121,108,114,119,121,123,118,122,116,125,122,121,118,121,116,116,119,116,121,123,118,118,123,122,121,120,120,121,123,122,125,123,122,122,125,122,124,123,122,123,120,122,121,123,124,122,121,120,118,107,118,117,115,116,119,120,117,121,121,120,125,120,124,123,123,117,118,119,114,114,115,119,118,113,123,123,126,128,128,124,116,148,131,124,127,125,121,122,131,47,102,113,106,108,119,112,101
111,121,121,124,122,122,123,121,132,126,126,125,124,120,121,121,126,123,121,125,127,123,123,120,117,120,120,122,116,122,119,121,123,122,120,119,120,118,119,121,113,120,121,118,107,109,117,116,122,120,120,129,130,123,122,119,122,122,120,119,119,123,127,124,122,121,115,113,120,119,121,123,111,119,123,131,124,120,124,118,130,123,121,123,124,122,119,122,126,122,119,120,117,120,125,120,122,118,118,117,116,116,118,116,141,127,124,127,132,123,123,123,95,118,119,115,117,120,122,117,118,121,122,124,122,126,123,119
139,123,119,119,116,113,120,124,107,118,121,124,129,125,116,113,123,121,121,122,128,125,116,120,132,123,118,109,106,112,117,123,108,118,125,131,115,115,116,113,137,127,122,128,132,123,121,124,125,122,122,123,126,126,123,123,126,123,119,125,124,124,118,124,111,118,123,117,111,118,124,118,122,121,122,126,125,120,118,120,120,121,119,118,123,120,121,120,121,122,122,123,120,123,124,125,126,122,124,123,122,117,120,122,112,121,121,121,125,124,121,114,126,123,122,124,122,120,122,121,129,123,121,116,114,119,122,124
115,125,123,125,120,117,116,117,125,123,122,125,127,121,115,118,128,120,119,123,123,121,118,117,128,125,121,120,116,122,123,126,127,125,123,121,122,123,122,123,124,122,123,126,129,122,119,119,131,126,119,116,127,116,121,123,96,110,118,108,99,119,116,111,135,128,122,127,132,126,125,123,124,120,121,125,127,124,124,121,120,122,122,118,119,119,116,120,121,121,122,126,120,123,126,125,126,123,120,122,121,118,120,121,119,119,119,122,124,120,119,117,120,120,123,120,116,111,119,121,112,121,122,124,119,121,121,119
130,121,121,123,124,124,121,122,137,126,122,123,125,123,122,124,113,118,121,126,123,121,121,115,138,126,123,127,115,121,123,126,115,117,117,119,123,121,112,118,127,123,118,119,121,113,124,119,115,122,123,117,119,122,117,119,121,122,121,129,119,122,121,123,121,121,120,130,123,116,121,119,121,122,122,123,128,124,122,119,120,122,124,130,128,125,123,120,122,122,123,113,109,118,121,123,117,120,119,122,121,118,116,117,128,125,122,124,125,121,123,123,128,124,123,127,126,120,120,122,106,118,123,120,115,124,125,125
67,112,119,119,105,108,116,107,72,106,117,130,130,121,117,105,139,127,125,128,128,125,124,125,124,123,122,124,119,125,127,125,125,121,119,120,117,111,115,121,124,124,123,126,119,122,118,120,125,122,120,121,125,119,119,119,123,122,121,126,121,124,124,122,120,120,121,123,125,123,122,119,119,119,121,122,125,122,124,118,122,122,121,123,124,121,119,122,128,121,120,129,121,125,129,123,115,120,119,108,114,122,120,119,122,118,121,124,119,114,118,118,120,121,124,125,127,123,119,118,132,125,122,126,121,122,123,126
130,119,119,117,119,121,123,120,128,125,123,120,122,121,120,115,118,121,121,123,124,126,117,118,147,131,121,130,134,127,120,133,89,113,117,94,95,101,112,111,109,116,119,125,129,123,119,117,129,124,122,124,124,122,117,120,127,126,122,128,122,122,121,123,113,122,119,117,115,115,110,116,116,118,121,121,124,118,117,118,120,120,120,119,123,123,122,121,120,123,123,127,118,119,127,123,121,121,117,115,122,122,124,122,125,123,120,126,125,126,125,117,119,124,122,115,120,126,122,120,133,122,120,121,114,120,123,127
109,119,120,118,121,120,122,116,102,112,116,121,118,113,114,108,136,127,123,122,123,122,123,130,141,127,121,119,118,123,125,124,115,122,122,128,127,122,119,119,105,113,121,109,113,124,124,112,135,128,125,131,126,123,126,124,127,124,120,122,120,124,121,124,127,124,122,130,133,122,121,122,106,117,125,114,106,123,124,115,121,122,122,130,129,126,121,119,123,122,119,125,123,120,123,124,124,122,122,124,124,125,124,122,119,122,120,128,132,120,117,119,107,119,124,114,110,119,123,120,120,121,120,123,120,124,122,119
136,127,123,129,132,126,124,124,85,112,120,117,111,118,122,114,142,127,123,127,126,123,123,129,81,117,121,125,123,123,124,114,127,123,122,122,122,122,116,122,143,131,126,127,127,122,125,128,75,108,117,115,116,122,126,107,137,126,124,132,123,120,121,123,136,127,123,126,129,127,126,124,122,122,123,122,124,121,121,122,126,124,121,132,133,130,123,122,114,116,119,101,97,107,117,120,119,120,121,122,118,118,120,120,123,124,122,127,131,124,122,120,119,122,122,127,125,129,124,120,123,122,120,123,114,113,122,124
121,122,120,123,122,125,121,119,123,121,123,124,128,124,123,122,129,123,121,122,124,122,120,123,133,125,120,135,148,133,126,125,91,106,116,83,81,106,115,109,130,124,123,133,140,130,122,122,125,125,121,127,127,126,129,126,141,130,121,124,118,121,124,128,95,109,117,130,130,121,121,111,114,116,116,114,116,119,122,113,135,129,125,127,126,121,118,123,126,124,120,123,119,121,123,125,128,125,121,124,124,122,120,122,122,123,121,121,123,120,121,118,121,122,122,123,124,120,120,120,122,121,121,122,117,122,125,124
120,121,122,124,122,122,122,118,119,123,121,124,126,118,121,119,121,118,120,112,112,120,122,122,120,119,120,126,117,118,122,121,114,122,121,124,124,122,119,115,124,124,120,123,123,120,121,121,124,120,123,123,123,122,125,124,127,124,123,125,120,121,122,125,101,120,119,117,118,123,124,115,136,125,123,125,127,119,117,121,129,125,123,123,120,120,123,125,133,125,120,123,120,123,122,124,118,120,118,120,126,119,118,118,117,116,118,115,114,116,116,111,138,127,124,125,127,126,129,130,124,123,123,126,123,125,121,125
122,122,120,123,119,119,121,119,120,122,122,124,122,115,119,120,124,125,125,127,128,129,124,122,119,121,120,120,118,118,120,122,122,120,121,122,121,119,124,120,125,123,124,122,124,123,121,119,121,122,120,122,123,124,124,121,119,120,118,121,119,122,116,121,148,131,124,130,139,129,124,126,105,113,113,90,97,110,118,112,134,124,123,125,125,120,122,123,120,121,123,124,120,125,124,124,151,131,121,122,125,121,121,130,55,100,115,111,111,113,109,100,132,125,122,124,123,120,128,123,132,124,121,121,118,119,112,124
114,120,120,125,125,124,126,118,117,120,120,110,115,118,120,117,120,120,120,126,123,123,122,120,118,120,118,119,115,119,119,121,128,123,120,117,110,117,125,123,108,119,123,129,131,121,118,114,126,122,121,124,126,124,119,119,125,120,119,122,119,123,123,123,113,118,121,122,119,116,116,113,155,133,125,127,131,125,124,131,64,106,118,112,105,112,115,103,129,124,122,122,120,120,120,127,127,124,122,125,125,126,127,121,121,122,121,122,123,122,123,120,125,121,121,122,123,120,121,123,118,120,121,120,114,121,119,119
111,120,121,125,128,124,119,120,141,129,125,133,138,124,121,126,77,111,121,101,102,123,126,111,121,123,120,130,125,125,123,120,130,126,124,128,126,124,122,126,124,122,122,123,126,122,118,121,118,122,122,123,121,123,122,119,119,123,121,126,120,120,124,126,122,120,119,118,119,115,119,118,126,124,124,127,127,126,125,120,114,120,122,123,122,122,123,119,162,132,123,127,121,120,123,132,71,99,109,111,113,118,118,102,135,127,128,126,121,113,117,121,134,125,123,124,125,122,123,126,125,124,122,129,129,128,126,126
97,111,118,110,111,121,117,113,123,122,123,130,128,119,127,118,123,122,123,128,124,121,119,120,118,119,119,121,121,122,122,119,121,121,118,125,123,119,119,121,120,121,120,115,116,117,121,121,119,122,122,126,125,120,120,120,123,122,121,123,119,123,123,125,127,126,124,128,129,126,123,120,105,114,120,110,107,111,116,108,138,128,124,125,126,120,119,122,126,121,119,123,121,124,124,127,121,122,120,123,124,125,126,119,108,116,120,121,124,120,122,117,122,122,121,124,123,126,124,118,129,124,122,123,119,124,127,125
126,122,119,120,118,113,116,119,122,122,122,129,132,123,123,121,118,124,123,112,117,127,128,123,122,122,120,127,122,125,122,121,122,123,123,123,121,115,119,119,125,122,120,123,127,126,119,119,120,121,120,117,112,112,120,121,126,124,121,123,121,124,122,125,97,113,120,120,122,123,123,114,124,126,124,126,126,121,123,120,132,124,122,132,130,131,123,123,85,106,111,91,88,100,109,112,126,125,123,129,130,126,123,122,137,125,125,125,128,122,122,126,102,120,122,124,124,126,126,113,123,121,118,119,109,112,112,119
127,118,118,120,119,116,119,118,127,125,124,127,131,130,125,120,125,123,124,126,127,128,130,125,117,122,121,124,118,114,118,121,121,121,119,116,120,128,126,120,121,125,125,129,130,119,118,119,123,121,119,125,129,135,135,123,118,117,117,100,97,108,112,118,125,122,122,126,129,128,123,123,124,123,122,123,127,121,121,121,127,125,121,121,121,122,123,121,102,116,120,119,108,112,118,119,110,115,119,126,125,121,120,114,124,122,121,124,128,125,124,122,121,123,120,122,122,123,121,123,121,120,121,121,119,121,120,121
136,128,121,119,120,116,119,121,94,108,119,113,108,110,118,109,128,125,124,125,124,124,123,123,128,123,121,124,123,124,123,124,129,123,119,122,120,119,121,123,120,123,125,125,134,132,131,121,97,116,121,115,116,123,121,114,127,124,123,126,120,121,121,124,123,123,123,126,127,122,124,124,132,126,123,123,124,126,127,122,84,110,118,108,108,110,111,111,127,123,121,128,124,126,130,122,127,123,120,125,126,123,122,121,140,129,124,125,132,129,125,130,76,106,117,113,112,115,119,106,130,125,120,124,121,123,121,125
127,124,123,122,122,123,123,119,124,123,121,123,125,122,123,120,131,124,123,124,119,120,123,123,122,121,120,126,117,120,122,119,125,124,122,129,130,130,122,118,129,127,124,127,128,116,108,122,133,125,122,128,124,129,131,127,68,105,120,117,105,111,117,110,132,125,121,127,129,124,122,121,127,125,125,123,125,122,119,121,125,115,103,119,121,123,121,123,115,119,123,119,114,114,115,120,111,122,126,124,123,121,121,113,128,122,125,127,128,125,125,122,138,129,125,124,122,125,130,129,96,118,119,119,116,119,121,117
81,107,116,113,117,119,121,105,145,127,122,124,126,123,126,125,132,126,123,124,121,122,113,125,127,124,121,123,120,126,133,127,116,117,121,120,119,122,124,119,119,122,121,122,126,118,119,118,124,121,124,124,123,125,122,120,121,121,117,118,110,114,120,122,117,118,116,117,115,116,117,115,124,121,122,114,112,115,118,115,125,124,123,132,132,125,123,124,121,122,117,123,123,122,122,122,125,120,118,120,124,125,120,119,127,123,122,123,122,120,119,118,121,124,122,123,126,126,124,121,127,120,122,122,117,119,119,122
135,124,121,121,121,122,123,123,127,125,121,122,124,121,122,120,98,114,121,122,121,121,115,115,123,122,120,122,119,120,124,125,129,127,123,129,133,132,126,121,118,118,118,109,110,112,117,115,129,125,125,126,125,127,123,123,125,122,120,124,120,120,121,123,122,122,123,126,127,119,120,118,128,122,119,116,124,121,117,120,113,117,121,115,113,119,123,117,119,120,121,125,122,125,122,120,123,122,120,128,130,126,122,122,132,126,122,119,117,120,120,120,124,120,124,127,126,124,123,119,120,122,120,125,120,125,121,122
135,125,121,124,125,118,121,123,111,117,119,121,123,123,120,118,141,129,123,122,121,121,117,126,95,115,119,124,119,129,132,114,137,129,124,126,127,118,118,124,129,123,119,122,123,114,118,124,116,122,120,116,119,118,120,122,122,119,119,121,115,118,107,120,121,122,121,123,127,126,125,119,128,125,123,131,137,123,121,120,100,117,124,107,102,122,124,116,126,121,121,129,127,130,122,124,125,124,122,125,124,122,122,120,127,124,122,125,126,119,121,121,118,120,122,122,121,126,122,120,101,115,120,124,115,110,122,117
126,125,121,116,116,119,118,119,124,121,121,124,126,121,122,121,138,128,122,124,123,124,123,128,85,110,117,120,116,119,117,112,130,125,121,122,125,116,119,123,124,125,124,119,121,124,123,119,129,119,117,123,118,116,118,120,118,120,116,108,109,120,122,120,126,123,122,125,129,127,117,122,123,124,121,122,128,122,118,119,120,121,124,131,129,125,127,122,119,120,117,106,101,108,118,122,122,123,121,126,129,127,124,121,118,120,121,123,125,118,120,120,125,122,122,122,122,123,124,122,124,122,121,123,121,119,119,121
94,115,120,115,112,114,117,112,122,118,119,123,127,127,131,121,128,125,122,122,120,118,112,121,114,122,123,128,125,126,123,121,125,122,121,122,119,124,126,123,119,122,122,123,124,119,125,119,109,119,120,122,121,122,119,117,127,124,122,124,121,124,122,125,123,119,119,117,119,121,120,119,110,116,122,124,125,121,123,116,126,123,121,124,125,125,121,123,119,122,121,123,116,119,119,121,122,122,122,122,123,121,120,118,121,123,122,126,128,127,121,119,118,121,123,125,116,113,123,121,119,118,115,102,106,116,120,122
127,125,124,127,126,128,125,119,139,127,124,131,132,124,123,126,89,106,115,112,106,105,111,109,123,123,123,124,114,122,121,120,131,126,123,131,126,121,122,124,129,125,124,112,123,122,121,120,141,128,119,116,121,121,119,130,64,102,113,117,107,112,108,104,135,126,123,125,123,122,127,125,126,124,128,144,129,120,115,119,129,123,109,86,118,116,122,123,107,117,125,142,123,125,122,122,125,123,115,108,118,117,119,118,121,122,124,134,122,122,118,119,128,125,125,135,125,121,122,122,110,119,118,106,101,112,119,123
102,115,119,118,122,121,113,113,123,124,121,124,130,128,122,118,135,128,125,125,122,122,127,131,120,126,122,125,122,123,123,122,90,110,117,121,121,121,119,108,143,128,123,123,128,124,125,126,134,125,122,121,124,126,125,126,114,120,120,122,116,117,113,119,121,120,120,121,123,119,118,119,122,121,122,119,119,119,115,119,127,123,122,122,120,120,124,123,111,118,121,123,119,121,120,118,122,120,120,129,123,114,115,117,122,124,123,109,118,129,126,121,122,122,124,138,124,123,122,121,119,119,116,114,117,123,122,123
132,126,121,129,128,126,121,122,102,115,122,116,116,118,121,116,130,124,121,122,123,124,120,124,127,126,119,122,122,121,124,120,125,120,121,121,120,121,120,118,136,126,124,124,125,123,120,124,115,120,119,120,117,118,124,120,132,125,120,123,117,123,119,120,123,123,122,123,123,120,119,118,140,125,122,123,127,124,118,125,114,118,121,121,118,122,131,119,126,124,120,123,117,123,123,123,125,124,123,125,124,123,122,122,121,121,124,127,126,123,122,121,134,124,121,125,119,119,122,123,110,119,121,121,115,124,121,117
127,123,125,128,130,125,124,121,124,122,123,123,129,125,122,122,130,123,116,114,118,118,122,121,103,115,120,115,107,117,119,117,128,124,122,132,126,122,123,124,110,121,124,129,131,122,123,115,128,123,123,126,124,124,122,123,115,119,119,121,117,122,123,123,125,125,123,122,120,121,122,124,123,123,121,124,124,119,119,116,110,116,118,117,115,114,116,116,108,122,124,129,126,128,127,120,128,123,119,113,117,114,116,119,128,125,122,124,129,127,128,124,120,121,118,123,118,122,125,121,118,120,121,124,119,123,126,123
124,125,122,127,131,133,123,118,127,122,123,114,109,100,116,122,112,118,120,121,113,118,119,118,129,123,111,116,123,128,127,125,121,119,123,119,117,116,118,117,143,129,124,126,125,121,122,125,85,110,118,120,121,120,117,111,131,127,122,122,118,123,125,129,96,114,119,120,122,118,114,109,120,120,120,121,121,119,120,118,117,120,121,122,121,123,124,120,127,124,122,124,122,129,129,122,125,122,122,119,116,111,121,124,123,124,124,123,126,128,137,124,117,119,119,123,118,123,120,119,118,122,119,123,121,122,120,120
133,127,126,133,135,125,121,124,96,112,119,115,110,116,118,112,129,124,123,122,122,120,119,121,124,123,120,124,125,119,122,124,130,124,123,122,122,131,124,123,114,121,123,125,124,119,119,116,125,122,119,124,123,120,119,120,111,118,121,120,118,122,123,121,140,125,124,125,127,112,116,128,77,111,117,109,113,128,128,108,111,121,124,132,130,125,120,119,139,128,123,123,118,120,122,130,112,119,120,129,129,130,123,119,132,123,120,118,109,109,132,126,108,116,121,125,122,121,117,113,126,123,120,125,123,127,125,121
123,122,120,123,128,127,124,123,120,119,118,119,118,110,115,121,117,124,123,119,112,120,121,120,121,122,121,124,120,124,125,122,121,121,119,122,127,127,122,120,124,123,123,124,125,120,119,120,112,120,120,119,112,111,116,117,143,126,121,123,120,130,129,129,100,113,119,121,122,116,119,112,142,128,122,124,129,126,123,127,139,129,125,122,112,116,117,120,129,121,120,126,122,119,121,121,135,128,123,126,128,122,127,126,125,124,120,123,127,126,123,119,127,125,125,130,126,123,121,125,98,117,116,110,112,120,121,117
125,121,120,121,122,122,121,120,121,121,124,130,130,121,119,119,135,124,120,128,132,132,128,128,83,109,116,91,91,109,114,110,127,124,117,126,130,119,123,121,125,122,124,128,132,123,120,120,137,126,122,123,119,118,122,126,87,109,118,115,112,126,121,114,129,122,120,127,124,118,116,117,140,125,123,121,124,120,124,124,113,121,118,117,118,120,121,119,120,123,120,123,117,119,122,123,122,122,122,127,124,123,122,121,131,125,122,121,125,124,122,120,117,121,118,124,122,124,123,119,115,118,120,126,122,118,122,119
123,122,121,122,118,112,113,117,125,122,120,119,125,121,123,120,123,120,120,119,117,128,127,121,120,120,120,132,123,119,121,122,123,122,116,118,122,114,118,120,123,124,122,109,111,115,117,119,111,119,119,126,124,123,121,120,127,126,122,128,117,120,123,126,118,122,123,126,122,120,122,118,123,118,121,125,127,115,115,115,133,125,120,121,121,129,127,122,129,122,122,124,117,114,123,132,92,112,119,117,118,119,115,108,146,131,126,125,123,120,120,127,83,114,120,127,124,119,117,113,132,124,122,116,113,126,132,127
126,122,119,120,123,120,113,118,124,124,122,125,128,120,121,122,124,122,121,128,125,125,122,122,118,121,121,109,106,124,121,120,121,122,120,122,121,115,118,119,121,123,119,125,129,125,123,120,122,122,124,124,124,119,123,123,120,121,122,112,105,119,121,122,120,123,121,127,127,121,120,122,104,119,122,128,128,122,126,117,117,119,122,121,122,125,124,121,119,124,122,122,118,120,122,120,126,122,121,122,122,118,121,123,101,120,120,119,124,119,115,114,117,113,118,122,118,122,120,114,133,126,121,120,117,120,121,126
125,122,123,123,124,122,128,122,124,122,122,124,128,126,122,119,118,122,121,121,113,117,118,119,121,123,123,129,121,121,122,121,122,123,121,124,125,120,122,120,121,120,119,123,125,121,119,120,120,121,122,126,123,121,124,119,122,124,122,123,125,121,122,124,121,120,123,118,109,123,122,121,129,123,120,114,117,111,117,116,110,117,118,124,124,125,123,118,129,124,120,124,121,125,119,124,113,119,120,122,121,120,119,117,129,124,122,122,123,124,121,119,121,122,120,122,119,117,119,119,143,127,121,122,119,123,125,129
89,111,117,120,123,120,108,112,139,126,120,121,124,119,119,122,103,114,122,122,120,120,126,119,125,122,120,122,120,123,119,123,123,124,122,125,126,124,122,119,123,123,121,125,126,124,124,120,117,119,120,116,117,113,119,119,118,122,121,104,106,121,121,124,122,123,120,128,129,122,125,120,120,122,122,120,120,120,116,118,120,122,120,123,121,124,122,121,119,121,120,122,122,128,123,122,137,127,122,115,110,109,119,124,119,119,121,128,130,129,121,117,118,120,121,125,124,124,121,120,137,127,124,125,120,123,125,128
100,119,121,122,124,121,122,109,145,126,121,121,124,119,117,122,126,124,121,123,121,123,121,123,122,124,123,120,117,122,120,125,122,121,121,123,122,120,122,122,126,123,122,122,125,124,122,119,119,120,118,123,122,121,121,121,120,123,121,125,112,112,121,120,120,121,122,122,124,122,121,121,123,123,122,130,132,122,120,121,123,123,123,112,104,118,119,120,121,123,123,130,123,122,122,120,122,121,122,125,126,122,124,121,124,122,121,122,126,121,120,122,120,120,119,121,121,121,120,120,128,124,122,125,119,122,124,125
106,119,119,112,118,119,118,116,123,124,124,124,122,118,121,120,108,118,119,121,120,122,124,117,116,120,120,123,120,121,121,121,145,128,123,124,125,123,125,128,104,112,118,118,119,117,116,111,131,123,119,118,118,122,118,123,120,121,121,124,120,119,123,124,115,121,121,132,132,125,122,119,120,122,121,103,115,120,123,122,120,122,120,125,121,119,116,119,123,121,122,126,122,127,126,125,122,122,121,123,122,119,121,118,124,124,121,123,129,125,121,118,115,122,120,116,107,115,120,121,120,122,120,126,125,125,126,123
126,123,121,125,127,121,119,120,121,124,122,118,123,123,126,121,118,121,122,127,121,123,121,119,118,120,119,115,114,116,119,119,127,123,120,123,125,128,122,120,125,123,123,124,126,121,123,121,148,129,123,122,119,119,122,132,16,90,111,118,110,119,113,92,142,129,125,123,121,122,119,124,134,126,125,124,127,126,128,125,120,121,119,121,119,119,119,120,121,121,121,121,119,123,119,119,127,124,119,126,133,129,123,120,118,120,123,109,108,114,121,122,121,121,119,124,126,121,121,122,119,121,121,121,120,124,122,122
121,123,120,118,123,121,122,119,129,123,122,124,121,116,119,121,91,118,119,117,119,121,120,112,126,122,121,122,116,119,121,124,129,121,119,118,122,128,124,122,116,117,120,120,121,112,116,117,108,116,120,122,119,119,119,116,132,126,120,122,120,123,123,125,121,123,122,121,123,122,126,119,118,120,120,121,121,122,127,119,148,130,126,132,134,124,117,130,40,97,112,102,96,110,120,101,138,125,126,130,128,120,123,121,134,126,121,125,128,125,123,125,123,124,123,126,126,126,122,123,118,121,119,114,111,116,121,120
120,122,120,126,124,122,120,119,117,119,119,119,119,118,122,119,120,122,121,120,121,122,120,121,120,122,119,123,124,121,119,119,123,121,121,116,115,118,127,121,106,119,121,123,125,119,119,113,130,124,119,120,118,124,122,125,118,121,121,122,120,124,123,119,139,130,125,125,128,128,122,125,71,103,115,121,119,117,119,105,133,124,123,123,120,124,124,125,133,125,123,127,121,123,121,128,125,125,122,123,123,116,125,121,125,123,122,127,132,132,129,121,110,116,120,106,105,113,115,117,126,122,120,127,124,125,122,122
124,124,121,121,124,120,124,123,124,122,123,124,120,121,119,121,119,122,122,126,124,124,120,122,122,122,119,123,119,121,123,122,127,125,124,130,124,119,121,122,101,116,119,112,115,118,118,113,117,123,122,125,124,123,120,118,127,123,120,124,121,124,122,122,130,125,121,123,125,124,125,124,116,117,119,119,123,119,117,118,125,123,121,119,117,119,121,122,129,125,120,122,118,123,121,121,119,121,120,122,123,118,122,119,127,124,121,120,123,122,128,123,100,116,120,125,123,120,120,116,132,124,122,117,118,122,120,124
123,120,120,118,117,118,117,116,112,119,122,121,129,126,119,118,117,121,120,125,121,123,127,120,121,122,122,124,119,118,121,121,122,123,118,119,119,115,118,118,124,122,124,120,124,121,120,120,137,125,119,119,121,122,123,124,97,111,119,120,114,116,119,114,133,125,122,122,125,123,123,122,136,125,121,124,125,121,122,121,114,117,119,120,117,120,119,118,127,122,120,121,118,120,121,126,144,130,122,128,130,129,127,129,84,106,115,109,112,112,115,107,134,125,120,122,120,119,119,124,128,124,121,123,118,123,123,124
122,122,119,121,124,121,124,120,125,123,125,122,122,121,123,122,102,119,118,110,109,116,118,117,123,123,122,123,119,120,121,122,124,122,120,126,125,124,122,121,122,124,122,117,121,115,119,119,124,122,124,126,123,127,126,123,116,121,119,109,114,123,117,116,121,119,120,122,122,120,121,119,131,124,122,123,125,121,121,121,115,121,120,123,120,119,119,121,117,123,121,120,118,126,124,119,126,119,120,121,123,120,119,119,132,126,123,124,125,122,123,124,124,123,122,122,122,122,121,122,123,123,122,122,119,122,122,123
113,117,120,122,122,118,118,119,111,116,119,121,124,120,119,116,120,123,122,124,124,124,121,122,130,125,120,129,126,123,129,126,112,115,123,116,112,114,109,114,120,123,123,126,128,130,130,121,122,123,122,125,124,122,120,123,121,121,121,126,119,122,124,122,121,121,120,118,119,120,122,120,121,122,122,123,123,121,121,117,121,123,126,123,122,123,122,119,119,120,115,122,119,121,123,123,119,120,118,118,122,121,121,119,121,122,123,122,124,121,123,122,120,122,123,123,120,120,121,120,120,123,122,121,116,121,121,119
122,122,120,123,124,121,122,121,123,122,122,123,124,120,122,120,122,121,120,122,119,121,121,121,121,121,121,122,117,122,125,125,120,120,120,121,123,121,118,115,126,123,121,122,123,121,122,121,123,125,129,122,120,121,123,123,120,119,111,123,121,122,123,122,120,123,130,122,119,121,121,119,122,124,115,119,126,122,121,120,119,114,112,117,118,121,122,122,120,121,119,122,121,119,121,121,121,122,120,122,128,122,120,121,121,125,126,121,121,120,121,120,121,123,123,122,120,123,119,123,117,119,119,123,119,120,121,119
123,121,120,122,123,120,122,123,121,122,121,122,122,120,121,121,118,121,120,121,119,121,120,113,124,122,122,121,116,122,125,130,121,122,122,123,125,121,122,123,122,122,122,122,123,121,121,119,119,121,121,121,117,120,120,118,120,122,121,124,121,122,123,122,121,122,123,122,122,122,122,121,121,122,119,121,121,119,121,117,118,119,118,121,125,123,122,123,121,123,120,122,119,123,122,120,123,121,122,122,125,121,121,122,120,122,122,121,122,120,121,118,120,122,121,121,118,121,119,117,121,121,121,122,119,122,121,123
119,122,120,124,125,119,116,109,124,121,125,123,123,122,127,129,117,122,121,123,122,120,117,113,120,120,120,120,115,121,122,123,122,121,123,121,122,120,119,117,120,122,121,121,122,123,121,117,122,122,121,123,123,121,123,128,117,122,121,119,108,118,117,113,124,123,123,124,124,124,127,126,123,122,121,122,125,121,123,120,121,122,120,122,121,120,121,126,117,122,121,121,118,121,115,109,123,121,120,121,121,122,123,124,122,122,124,122,123,120,121,122,121,122,121,122,121,121,121,119,122,121,121,123,120,121,123,126
117,122,120,119,120,122,120,109,120,122,123,122,125,120,119,115,119,120,120,121,120,120,121,122,122,122,121,122,117,122,124,122,122,123,121,122,124,121,120,120,123,121,122,122,125,122,123,128,115,121,120,121,119,121,118,110,121,122,121,122,118,123,122,121,120,121,122,123,124,120,119,119,122,122,122,120,119,120,123,120,120,123,122,124,119,120,120,119,119,121,120,122,120,123,121,122,121,122,121,122,120,121,121,120,121,120,122,122,123,121,120,115,118,121,122,122,123,121,121,121,121,123,121,121,115,121,122,120
121,122,122,121,124,121,122,117,126,123,120,122,123,122,124,128,117,121,120,121,118,121,121,115,119,121,121,121,115,120,118,120,120,121,121,122,127,122,124,121,123,123,122,123,125,122,123,124,120,122,122,125,121,120,120,116,121,122,120,121,117,124,126,128,121,122,119,120,121,119,119,119,120,120,121,122,124,120,120,118,120,121,123,122,119,121,121,121,121,122,122,122,116,121,121,121,119,123,120,123,123,121,120,117,122,121,121,121,122,120,121,120,121,121,121,122,121,121,120,122,119,120,120,122,119,121,121,120
121,122,121,122,123,121,119,120,122,122,121,123,122,122,122,121,120,122,123,121,120,121,122,122,120,120,120,121,118,120,118,118,122,123,122,122,120,121,125,122,121,122,119,121,125,120,118,119,122,122,122,122,120,121,121,122,122,121,120,121,119,121,123,119,119,120,120,121,122,121,122,118,121,120,120,122,125,120,118,118,118,122,120,122,120,121,121,123,119,120,119,120,118,122,122,121,125,123,121,123,123,121,122,122,117,121,121,123,124,120,120,120,118,122,120,121,119,121,120,114,123,123,121,122,118,121,122,120
114,118,121,121,123,120,120,118,122,121,121,122,125,120,121,122,121,122,122,122,119,121,121,119,120,122,121,123,119,122,122,123,121,122,121,121,121,121,122,119,121,121,121,123,124,120,119,117,118,119,121,122,121,121,123,122,122,120,120,122,120,122,122,121,120,121,121,122,123,120,120,118,119,120,121,122,123,123,119,117,119,120,121,122,119,120,120,118,120,123,120,121,118,121,122,122,122,124,121,122,122,121,122,122,120,121,120,122,123,121,119,117,120,121,120,121,121,121,122,120,119,121,121,121,116,121,122,121
123,120,119,121,121,121,121,120,121,122,122,122,123,121,122,121,121,123,123,121,118,121,122,122,120,121,121,122,118,120,122,124,121,122,122,122,122,121,121,117,121,122,122,123,123,121,119,117,120,121,120,121,120,122,123,124,121,123,122,122,117,120,121,123,118,121,120,122,124,121,122,117,125,123,122,122,122,121,121,119,118,121,121,121,119,122,123,121,119,119,120,121,118,120,120,120,122,123,120,123,122,121,119,120,120,122,122,122,124,120,120,119,121,122,122,122,118,122,123,120,121,121,122,122,119,122,121,122
120,122,120,122,123,121,122,121,122,121,122,122,123,120,120,120,120,123,121,121,121,122,120,118,120,119,119,120,117,121,122,121,122,122,120,121,123,121,122,121,121,123,122,122,123,120,120,114,120,122,122,122,120,120,123,122,121,121,120,121,119,121,122,121,121,122,122,121,123,121,121,120,121,121,121,122,124,121,121,117,120,123,121,122,120,122,121,123,122,121,120,123,119,121,120,121,120,122,119,121,124,121,121,120,120,120,123,123,123,121,121,119,119,122,120,121,120,121,121,123,120,122,121,122,117,121,121,123
122,120,122,121,124,121,122,119,120,121,122,121,123,121,120,116,120,122,120,121,120,121,122,123,121,122,120,122,118,121,122,122,119,121,121,123,121,121,121,121,123,123,121,122,122,121,121,117,118,121,122,122,121,122,121,122,120,121,122,122,118,121,123,122,121,123,121,123,124,120,120,120,122,123,122,123,123,120,120,120,121,121,121,122,119,121,122,121,121,121,120,121,119,121,122,122,121,122,121,122,122,121,122,119,121,121,123,122,125,121,122,121,119,119,121,122,119,121,122,120,118,120,119,121,117,120,122,122
121,124,121,121,124,120,121,120,122,122,123,122,124,121,122,119,119,119,120,122,119,121,121,121,120,121,120,120,116,120,123,122,123,122,121,122,123,121,120,118,115,119,121,122,124,120,120,117,121,123,121,122,120,121,122,122,121,122,121,121,118,121,123,122,122,121,121,122,122,121,121,121,120,121,120,122,124,120,121,116,120,123,121,121,121,122,122,120,121,121,121,122,119,121,122,121,120,121,120,122,122,122,120,118,121,123,121,122,124,121,122,120,121,121,121,120,120,122,121,120,121,121,121,122,120,121,122,121
120,121,121,122,123,120,121,121,121,122,120,121,123,121,121,121,121,121,120,122,119,121,121,119,119,120,120,121,120,121,121,122,120,122,120,122,123,122,121,119,121,121,121,122,123,121,121,120,120,122,121,122,118,121,121,122,121,122,121,121,116,120,121,122,122,123,122,123,124,122,121,120,122,122,122,122,124,121,121,119,117,118,120,121,119,120,121,121,122,122,119,121,117,121,121,119,121,122,121,123,123,121,121,119,121,121,122,122,123,121,123,121,120,122,121,122,119,120,119,120,121,122,121,121,118,122,122,121
121,122,121,122,124,121,121,121,118,121,121,123,125,121,121,118,120,121,120,122,120,121,122,122,121,122,121,121,118,121,122,122,122,122,121,122,123,120,121,119,121,121,121,121,122,121,122,121,120,121,122,121,118,121,121,121,120,122,121,122,120,121,121,122,121,122,122,123,124,121,121,118,122,121,122,121,122,121,121,121,121,122,122,122,120,122,121,121,120,121,121,121,117,120,121,123,123,123,122,122,121,120,120,118,120,122,121,121,122,120,121,121,116,120,121,122,121,121,121,119,122,122,122,122,117,121,122,122
121,120,121,122,123,121,120,118,120,121,120,122,124,121,122,121,120,122,120,122,118,121,122,122,121,122,121,122,119,121,122,122,122,121,122,122,121,120,121,119,120,122,122,123,123,119,121,119,121,121,122,122,120,122,121,120,121,121,121,122,119,121,122,119,121,122,120,121,123,121,121,121,123,121,122,122,123,121,121,120,117,120,120,122,120,122,121,117,122,122,122,121,117,121,122,124,120,121,120,122,124,122,121,120,122,122,122,123,123,121,121,121,118,122,120,122,121,120,119,118,120,120,121,121,118,121,123,122
121,122,121,122,124,121,122,120,122,120,121,121,122,121,121,120,121,121,121,121,122,121,120,120,118,121,121,122,117,121,122,121,121,122,120,122,123,121,122,121,121,124,122,122,122,121,120,117,118,120,120,122,120,122,122,121,119,120,121,121,119,120,120,122,120,121,120,122,122,121,121,120,121,122,123,122,126,121,121,119,121,121,121,121,122,121,121,119,122,121,120,121,120,122,121,120,119,120,121,121,121,121,122,122,121,122,122,121,122,121,120,118,118,120,121,123,121,122,121,122,121,123,119,122,119,122,122,119
122,120,120,123,123,121,120,118,120,121,121,122,123,120,123,120,123,124,119,121,120,122,121,122,120,121,121,121,118,121,122,123,121,120,121,122,125,121,121,120,121,123,122,121,124,121,122,119,120,123,120,122,119,121,121,122,121,120,122,121,117,121,122,122,121,121,121,122,122,121,122,118,120,122,121,123,125,120,121,120,120,121,121,121,119,121,122,122,120,120,119,121,117,122,122,121,121,122,120,122,124,121,120,116,122,121,121,121,124,121,124,120,121,121,121,122,120,121,121,124,121,120,121,122,118,121,122,121
121,122,121,122,122,121,121,117,121,122,123,122,123,122,121,120,121,122,121,122,119,121,122,121,120,120,120,121,119,122,123,125,124,122,121,123,124,121,121,117,115,119,122,122,123,120,119,117,123,121,121,121,121,122,122,123,121,123,121,122,118,121,122,122,121,122,122,121,121,121,122,121,120,121,120,122,125,121,121,118,121,123,122,121,118,122,123,122,120,120,119,120,119,121,122,120,120,120,121,122,121,121,121,121,122,123,121,122,125,121,122,120,121,121,121,121,119,121,122,121,121,122,123,121,119,121,122,122
120,122,120,122,122,121,121,119,120,121,120,123,124,122,121,120,121,123,120,121,119,121,121,123,119,120,121,121,119,121,122,123,121,121,121,122,122,121,121,119,122,123,122,122,125,120,119,119,122,122,119,121,121,121,122,122,119,121,120,122,119,121,122,122,123,122,122,123,122,120,122,122,119,122,121,122,123,122,120,117,122,122,122,122,121,121,121,121,120,121,120,121,118,121,120,120,116,119,121,121,123,122,120,118,123,122,120,123,124,121,122,121,122,122,120,121,119,120,122,123,120,122,120,122,118,121,122,121
119,121,122,122,122,121,121,118,121,123,122,122,123,120,121,120,120,120,120,122,120,121,120,119,121,122,121,121,118,121,122,122,120,122,119,122,121,121,121,119,119,119,120,121,124,122,121,118,120,122,122,122,121,120,122,122,119,122,122,121,118,121,123,122,120,123,122,122,122,122,121,117,121,122,120,122,123,120,121,121,120,121,121,121,121,121,122,124,121,121,121,121,119,121,123,119,120,122,122,122,123,121,121,120,121,122,121,122,125,121,121,120,120,119,122,121,119,120,122,120,120,121,121,122,117,121,123,123
121,123,120,123,123,122,121,123,122,121,122,121,122,120,120,119,121,122,121,120,119,121,121,121,123,122,121,121,119,121,122,124,118,120,121,122,123,121,121,117,122,121,121,122,124,121,120,120,121,122,122,121,121,121,122,124,120,124,120,122,119,122,121,120,121,122,121,121,122,121,121,121,118,120,121,122,122,121,121,118,120,123,122,122,120,121,122,121,121,120,120,122,119,122,122,123,119,120,121,122,123,121,122,119,122,122,121,122,124,121,122,120,119,122,120,121,119,121,122,121,118,119,121,121,117,120,121,119
123,123,122,121,123,121,122,122,122,123,120,121,124,121,121,121,118,120,121,121,120,121,123,119,122,123,122,122,120,121,120,122,120,122,121,123,122,121,121,120,120,120,121,121,123,121,123,122,122,122,120,122,119,120,120,122,121,122,121,122,118,121,122,121,120,122,122,122,124,121,121,119,120,121,120,122,123,121,122,119,120,122,120,122,120,121,120,118,120,122,121,121,118,121,121,121,122,122,122,121,122,121,121,119,121,122,120,123,121,120,121,119,118,120,121,122,120,121,122,120,121,121,122,120,117,121,123,121
120,121,121,123,123,121,121,119,119,121,122,123,124,120,122,119,122,121,120,121,119,120,121,123,120,121,120,121,119,121,124,121,119,121,121,122,120,120,120,116,123,122,120,123,125,120,121,120,119,121,122,120,119,121,121,122,120,121,122,122,120,120,121,122,121,122,121,121,122,121,120,119,119,121,121,121,122,121,120,118,121,122,120,122,120,121,121,123,120,121,121,122,118,122,121,118,122,122,120,122,124,122,122,122,120,122,121,122,124,121,121,120,120,121,120,122,121,122,120,121,121,121,119,121,118,122,122,121
121,122,121,122,124,120,121,121,121,120,122,121,125,121,123,118,121,124,122,122,120,121,123,118,121,122,121,122,118,122,121,120,120,122,122,121,121,120,120,120,120,121,121,123,123,121,120,119,121,121,122,122,120,122,124,123,119,121,121,121,117,120,121,122,122,122,122,122,122,120,123,121,120,122,121,123,124,120,120,118,121,122,123,122,120,121,121,121,121,122,121,121,121,121,121,122,120,120,120,122,124,121,121,118,121,122,121,123,123,120,120,118,119,121,122,122,119,120,121,120,121,122,120,121,120,121,121,122
121,121,123,122,121,120,120,120,120,122,121,123,124,121,118,115,119,120,120,121,119,121,121,122,120,121,122,122,117,120,120,121,122,121,122,121,123,121,123,120,122,122,122,123,126,121,121,119,117,121,118,121,121,121,121,119,122,121,120,122,119,122,123,121,124,124,123,123,124,122,117,121,121,121,123,122,124,121,119,119,121,122,120,121,118,121,121,119,120,120,120,122,120,121,122,119,119,121,121,122,123,121,122,120,121,122,121,122,123,121,120,116,119,122,121,122,120,122,122,122,121,122,121,122,119,121,121,123
121,120,121,122,122,121,121,118,121,123,120,121,123,121,121,119,119,120,120,121,121,121,121,121,119,121,120,122,118,122,122,121,120,121,122,122,123,121,122,117,121,121,121,122,122,121,122,120,120,121,120,122,120,121,122,122,119,120,119,122,119,121,122,119,121,122,122,121,123,121,121,121,122,120,121,121,123,122,121,119,123,121,120,122,122,122,123,125,117,121,121,121,117,121,122,121,123,122,121,121,122,120,121,118,121,120,120,123,124,120,120,120,122,124,122,120,118,121,120,121,121,121,122,122,119,120,121,119
121,122,121,122,123,121,121,118,120,121,121,122,124,121,121,119,120,123,121,122,119,121,122,121,119,121,121,122,119,121,121,122,122,120,121,122,122,122,124,120,120,122,121,122,123,121,120,116,121,121,121,120,118,121,122,122,120,122,121,122,118,121,122,120,121,122,121,121,123,121,121,119,121,122,121,121,122,120,121,122,121,121,122,121,119,120,122,121,121,120,121,122,120,121,122,121,121,123,122,122,123,121,121,122,120,120,120,122,124,121,121,118,118,119,121,121,119,121,122,119,121,123,121,120,118,120,121,125
120,122,120,122,123,121,122,121,121,122,120,123,125,121,121,120,120,121,120,121,120,120,120,118,121,122,121,121,117,121,122,123,119,121,121,123,122,120,121,119,121,122,122,122,121,121,121,119,119,122,120,120,120,121,121,122,119,122,122,122,118,121,123,121,122,122,122,121,123,120,121,120,120,122,122,122,124,122,123,119,122,121,123,122,119,121,122,121,120,119,119,120,117,121,119,121,120,120,120,122,124,120,122,120,121,122,120,122,125,121,122,120,121,125,122,123,118,121,121,122,121,121,120,121,119,122,121,120
121,121,121,122,124,121,121,117,120,120,122,122,122,122,122,120,121,123,121,122,119,121,120,118,121,121,119,120,118,120,121,122,120,123,121,122,121,120,119,119,121,121,123,122,124,121,121,121,121,122,120,121,119,121,122,121,119,121,121,121,119,121,122,119,121,122,122,122,120,121,121,119,121,122,122,123,124,121,121,119,120,121,123,122,119,121,119,120,121,121,121,121,118,121,123,121,121,122,122,122,121,120,121,120,120,123,121,122,122,120,122,120,121,123,119,121,119,121,122,122,120,121,122,122,117,121,120,121
119,119,122,122,123,122,120,116,122,123,121,123,122,121,121,120,118,121,120,122,120,121,121,121,119,121,120,121,118,121,122,121,123,123,121,123,123,120,123,121,121,121,121,122,123,122,121,120,120,119,121,121,119,121,121,123,119,121,119,122,118,122,122,122,121,122,122,122,122,122,123,119,122,123,123,122,124,121,121,117,118,118,121,122,119,121,122,121,120,121,121,121,119,122,121,122,121,123,121,122,121,121,121,117,123,122,122,122,124,121,122,120,120,121,120,121,120,121,120,120,119,121,121,121,118,121,122,121
121,123,121,123,123,121,121,122,121,121,121,123,124,120,121,119,120,121,121,122,120,120,121,121,120,122,120,121,118,120,122,121,119,121,121,122,124,120,121,118,121,121,120,121,123,121,120,120,121,122,121,122,119,121,124,124,120,121,120,122,117,120,120,119,122,121,122,122,123,121,121,120,121,123,120,122,124,121,121,119,120,121,121,121,120,122,123,124,119,121,122,122,119,121,122,121,121,122,120,122,122,121,121,122,120,122,122,122,123,120,121,118,120,120,120,123,118,120,121,121,120,122,120,121,120,120,120,121
118,120,120,122,123,121,121,119,120,122,123,122,122,121,119,117,121,121,120,121,119,121,122,124,122,123,122,122,118,121,122,121,120,122,119,121,122,122,120,115,122,119,121,121,123,122,122,122,121,122,121,121,122,121,122,124,122,122,120,121,117,121,122,122,122,122,121,122,122,120,121,119,121,122,121,121,123,121,121,122,119,121,121,122,119,121,122,120,121,122,120,121,118,120,122,122,121,121,120,122,123,121,121,119,121,122,121,122,124,121,121,119,119,122,122,122,119,120,120,121,119,120,121,121,118,122,122,121
121,121,123,122,124,121,120,120,120,121,121,121,124,121,121,118,121,122,119,120,119,121,121,122,121,121,121,121,120,121,123,125,120,122,120,122,122,121,121,113,120,123,122,122,124,120,122,121,122,121,122,122,118,121,122,122,118,120,122,121,117,121,120,120,122,122,122,122,123,121,122,122,122,124,122,122,123,120,121,119,120,120,121,122,119,120,121,122,120,121,121,121,117,121,122,121,121,122,122,123,124,121,121,118,122,121,120,122,125,122,121,119,120,121,122,122,120,120,121,120,120,121,120,121,117,121,121,122
120,122,121,122,125,122,121,119,121,122,122,122,125,121,120,118,122,121,122,122,121,122,123,124,121,122,120,121,117,121,121,119,121,120,121,122,124,122,124,123,121,123,122,122,124,120,121,120,121,121,122,122,121,121,120,118,119,121,119,121,119,120,121,122,121,123,122,122,124,120,119,117,121,121,121,122,125,121,122,121,122,122,121,121,119,121,121,121,119,121,120,121,117,121,122,120,122,122,122,121,121,121,121,120,121,122,122,123,123,120,120,118,121,122,121,122,120,120,121,121,121,122,120,122,119,121,123,123
121,122,121,121,123,121,121,118,120,122,121,122,122,121,120,120,122,122,120,121,121,122,122,122,120,122,120,121,117,121,122,123,122,122,123,122,123,121,121,121,122,124,119,122,124,121,121,121,119,120,120,122,120,121,121,121,118,121,120,121,119,121,122,121,123,124,121,123,124,121,121,121,121,123,122,121,122,122,122,122,120,119,120,122,120,120,121,122,118,121,120,121,119,121,121,120,122,123,122,122,120,121,120,119,120,122,122,122,123,121,122,119,119,121,120,122,121,121,121,123,120,121,121,121,116,121,122,122
120,123,121,122,123,121,122,120,122,118,121,122,124,120,122,118,119,119,120,121,120,121,122,121,120,123,120,123,118,120,121,122,121,121,121,123,122,120,121,119,121,123,123,123,123,121,120,119,118,120,122,122,121,121,120,117,121,121,119,122,117,121,122,123,122,122,121,123,123,121,121,121,123,123,121,122,123,121,121,121,115,120,121,121,120,121,122,118,122,119,119,120,120,122,123,119,122,120,120,122,123,121,121,121,121,123,122,122,122,121,121,119,119,121,121,122,120,121,122,122,119,121,120,122,119,121,121,121
120,120,122,121,122,121,122,119,121,121,123,123,125,120,119,119,119,121,120,122,120,121,121,119,121,122,120,122,117,121,122,122,120,118,121,122,122,121,121,119,121,122,120,122,123,121,121,119,123,123,122,122,119,120,120,122,120,122,121,122,119,121,122,123,121,120,122,122,123,122,121,117,121,122,121,122,123,120,120,119,121,121,121,122,120,121,121,123,120,122,120,121,119,120,122,122,122,122,121,122,123,121,121,116,122,122,121,122,122,121,121,122,120,121,120,121,118,121,121,122,121,121,123,121,118,121,123,123
122,121,122,122,122,121,120,119,121,123,121,122,123,121,122,118,121,122,121,121,119,121,120,119,121,121,119,122,118,120,122,121,121,122,120,122,123,121,121,120,120,122,121,123,124,120,118,116,121,121,121,122,120,121,121,122,119,122,122,122,119,121,122,123,121,120,120,122,122,121,121,118,121,123,122,121,123,120,121,122,121,121,120,121,118,120,122,123,119,123,121,122,118,121,121,119,121,121,122,122,122,121,121,119,120,121,120,122,122,122,121,120,121,121,123,122,119,120,121,122,121,121,120,121,119,120,122,123
120,122,120,122,122,122,120,119,121,122,122,123,124,121,121,120,121,123,122,122,119,122,123,125,120,122,120,121,119,120,122,120,122,121,121,122,122,121,121,119,121,120,122,122,122,121,120,118,119,121,120,122,120,122,122,120,119,121,121,122,120,121,122,120,122,123,121,123,122,120,121,121,120,120,121,122,122,121,121,121,119,121,121,122,120,122,121,118,121,120,119,120,119,121,122,122,123,122,122,122,123,121,121,117,120,122,121,121,122,121,121,121,121,123,121,121,119,120,122,121,120,121,121,122,119,121,121,122
121,122,121,122,125,121,121,120,120,121,122,121,122,121,120,119,121,121,120,121,119,121,123,120,120,121,119,122,119,122,121,122,122,122,121,122,122,121,122,120,121,123,120,122,122,120,121,121,121,120,121,122,118,121,122,123,121,121,120,122,119,120,120,120,121,122,121,123,124,121,122,119,121,122,121,121,122,122,122,121,122,122,120,122,120,121,121,122,119,119,119,121,117,122,123,121,119,121,121,121,123,120,121,121,123,124,122,122,124,121,121,118,121,122,121,121,120,121,121,122,119,120,120,122,119,121,122,121
122,120,121,122,124,120,121,121,121,121,121,122,123,121,121,118,120,123,122,121,119,121,122,122,121,122,122,122,117,121,121,120,121,122,121,123,123,120,121,119,120,122,120,121,121,121,120,118,119,119,120,121,120,121,124,123,121,123,120,121,119,121,121,121,119,122,122,122,123,121,122,119,121,120,122,123,124,122,121,120,120,122,122,121,120,122,121,122,122,120,119,121,118,120,122,120,122,121,120,121,123,121,121,122,119,122,122,122,121,120,121,120,121,122,122,122,119,120,121,121,121,121,121,121,119,121,122,123
123,122,122,123,123,120,121,123,122,125,121,122,124,121,120,118,114,115,118,120,118,120,121,116,122,124,122,122,119,121,122,123,121,122,122,123,123,122,122,121,122,122,122,121,123,120,120,122,119,120,121,121,120,121,123,121,120,121,118,121,118,121,122,119,121,123,123,121,124,121,122,120,120,121,123,123,124,120,120,120,119,121,122,122,120,121,121,120,119,120,119,121,119,121,122,120,121,124,122,123,122,121,121,120,120,121,121,122,123,122,120,120,119,120,121,121,119,121,122,121,121,120,120,122,118,121,122,120
122,122,122,124,124,121,122,122,118,122,122,121,122,120,120,120,121,123,121,122,120,122,121,122,119,120,122,121,121,121,122,120,120,122,121,123,124,120,120,119,121,120,120,121,123,121,121,122,119,120,120,120,120,121,121,120,121,123,121,121,118,121,122,122,122,122,120,122,125,121,120,120,122,122,122,121,122,121,121,120,118,119,120,122,120,121,123,119,119,121,120,121,119,121,121,118,121,122,122,121,123,121,121,120,120,122,122,123,123,121,121,120,120,121,119,121,119,121,122,120,121,121,122,122,119,121,122,121
122,124,123,122,123,120,121,120,121,119,119,122,123,122,120,120,121,124,121,123,120,121,122,121,120,121,120,120,118,121,122,121,121,121,122,126,123,121,122,123,121,122,120,119,123,120,121,118,119,122,121,122,119,121,122,119,121,121,121,122,118,121,122,124,120,121,121,122,123,120,121,119,119,121,122,122,123,120,120,120,118,121,122,122,121,121,120,120,121,121,120,122,118,122,122,120,123,122,121,122,124,120,120,120,120,121,121,122,123,120,121,119,119,121,121,121,119,120,121,121,119,122,122,121,118,121,122,124
120,120,120,122,124,121,121,118,125,121,121,122,123,121,122,121,120,122,120,122,120,121,121,121,119,121,122,122,121,122,122,121,122,122,122,121,121,121,120,119,121,122,121,123,123,120,120,122,119,121,122,122,121,120,120,118,120,121,122,122,118,121,121,121,123,122,121,122,123,120,121,120,120,122,121,122,122,121,120,121,120,121,120,122,121,122,121,117,120,120,122,122,118,121,121,124,122,122,121,122,123,121,122,121,122,123,122,121,122,121,121,120,120,120,121,121,119,121,121,120,121,120,119,121,117,122,123,120
119,122,121,122,122,121,121,123,121,122,122,122,124,120,120,119,121,121,120,121,120,121,121,122,118,121,120,121,117,122,121,123,121,122,120,121,124,121,121,119,123,123,121,123,124,121,121,120,121,122,121,122,119,120,121,121,120,121,121,122,117,120,122,120,122,121,122,122,126,121,121,123,121,122,123,122,123,120,121,116,120,120,119,121,121,121,121,121,120,121,122,122,118,121,121,120,121,121,121,121,124,121,122,122,121,122,122,121,124,121,122,120,121,121,120,123,121,122,121,120,120,121,121,121,117,121,122,122
123,123,122,123,123,121,122,118,115,119,121,122,124,120,121,120,122,122,120,121,120,121,122,123,122,122,120,121,118,120,121,122,120,122,122,122,124,121,120,116,120,121,120,122,123,122,121,119,119,122,121,122,121,120,121,121,121,119,119,121,118,121,122,119,120,121,122,122,121,121,120,119,121,122,122,123,124,120,121,119,120,122,121,121,118,120,121,122,121,121,122,122,119,121,122,122,120,121,121,122,122,121,120,117,120,121,121,123,124,121,122,118,120,122,121,121,118,121,122,122,120,123,121,122,119,121,121,122
122,121,120,122,123,121,121,120,120,121,121,121,123,121,122,119,121,121,121,121,120,121,122,122,120,122,120,121,119,121,122,122,123,121,122,122,124,120,121,120,120,123,121,123,122,121,122,119,121,121,121,120,120,121,121,121,120,123,121,122,118,120,121,121,121,121,121,122,123,121,121,121,121,120,120,121,123,120,121,115,121,122,121,122,120,121,124,122,122,122,122,121,117,119,122,123,121,121,121,122,122,121,121,119,120,121,120,122,125,121,120,119,121,122,123,122,119,121,121,122,120,121,121,121,117,121,123,121
120,122,121,122,124,121,120,117,120,120,120,122,122,121,120,119,122,122,122,122,120,120,122,123,119,121,121,121,119,121,121,121,121,122,121,122,123,121,121,120,122,122,122,123,124,122,121,119,120,121,119,121,119,121,122,120,119,122,121,122,119,120,121,121,120,122,122,122,122,121,121,119,121,121,121,122,123,121,122,120,122,122,122,122,119,121,123,123,120,121,120,122,118,122,122,121,120,121,121,122,124,121,120,119,121,121,121,121,121,121,121,119,120,122,122,123,120,121,121,120,120,123,121,122,116,121,121,120
121,122,121,121,122,120,121,119,122,121,122,123,124,120,121,119,120,121,120,121,119,121,122,123,119,120,120,120,118,120,119,118,120,121,121,121,123,121,124,123,121,121,120,123,125,122,120,120,121,122,122,122,119,121,122,121,120,121,121,121,118,121,121,119,122,122,120,122,124,121,122,120,122,120,121,122,122,121,122,118,118,122,121,122,119,121,121,123,121,122,121,122,120,122,121,120,119,121,121,122,122,120,121,120,122,123,122,123,123,121,120,122,121,123,121,122,118,121,121,121,118,120,120,122,118,121,122,122
120,121,121,121,123,121,120,119,121,121,123,123,123,120,121,120,119,122,121,122,119,119,121,119,120,122,122,122,117,120,122,123,119,121,120,122,124,121,121,114,122,122,121,123,123,121,121,120,120,121,121,122,120,122,122,122,120,121,121,121,118,121,122,120,123,122,122,122,124,121,121,121,118,120,121,122,123,121,119,118,120,122,122,121,118,121,120,119,120,121,121,121,118,120,124,122,120,121,121,122,125,121,120,118,121,122,122,122,124,120,121,120,119,121,120,122,120,121,121,123,120,120,120,121,118,121,121,122
120,122,121,123,122,121,121,119,122,123,122,122,124,121,121,122,119,120,121,122,118,121,121,121,121,121,119,121,117,121,122,119,121,123,121,121,123,121,122,119,122,121,122,121,123,121,121,119,120,122,122,122,120,122,122,123,119,120,121,122,120,121,122,121,120,120,121,122,124,121,123,118,120,123,120,121,123,120,121,120,120,123,123,122,118,121,122,121,120,120,119,121,118,121,122,122,121,121,121,122,123,120,121,119,119,120,121,122,122,121,121,122,121,122,121,122,118,121,122,119,122,122,121,122,119,120,121,121
122,120,120,122,120,121,122,121,121,122,122,122,126,121,122,122,119,121,122,122,119,120,122,120,121,121,120,122,120,122,123,125,121,121,122,122,122,122,120,118,121,122,120,123,123,121,122,120,121,121,120,122,123,120,120,121,120,122,121,121,119,120,122,122,121,121,121,123,123,122,120,120,120,121,122,122,122,120,120,119,121,122,121,122,120,122,122,122,118,121,121,121,118,121,121,121,121,121,122,122,123,121,122,120,120,121,121,122,123,121,121,120,121,121,121,122,120,121,121,119,120,121,121,122,118,121,122,121
121,122,122,121,121,121,120,119,121,122,121,123,125,122,122,120,121,120,121,122,121,121,121,122,119,120,120,122,118,122,122,121,118,120,121,121,124,121,121,119,122,123,121,122,123,121,121,120,122,122,122,122,121,120,120,121,119,119,119,121,118,121,122,118,122,123,122,122,122,120,121,119,121,123,121,122,124,121,121,120,120,121,122,122,119,121,122,122,120,122,119,122,117,121,122,124,121,122,121,122,123,120,120,119,120,121,122,121,123,121,121,120,121,122,121,122,117,121,122,122,121,121,119,121,118,122,122,121
120,121,120,122,123,121,122,119,121,123,120,122,123,121,122,120,120,120,120,122,120,121,121,119,119,121,121,121,118,120,121,120,122,122,119,122,122,122,121,120,122,123,122,121,122,121,121,119,120,120,121,120,120,120,121,122,121,122,120,122,118,121,122,122,123,123,122,122,122,121,122,121,121,122,121,123,123,121,120,119,117,121,121,122,119,121,121,120,121,120,121,122,117,121,121,120,121,122,121,122,123,121,124,121,122,122,122,123,123,120,120,119,121,121,120,122,120,122,122,121,119,120,120,122,118,121,120,117
119,121,122,122,123,121,121,120,122,123,120,121,123,120,121,120,120,122,122,122,119,120,121,121,120,122,120,121,119,122,121,123,121,122,119,121,123,120,122,120,121,121,123,122,124,121,120,119,120,121,121,121,120,122,121,120,119,121,121,121,118,120,121,119,120,124,122,123,123,121,122,121,120,120,120,121,123,120,120,119,120,121,121,122,121,122,122,120,119,121,120,121,118,121,121,122,120,121,122,122,122,122,122,120,122,123,121,122,123,122,122,124,120,121,120,121,120,120,121,119,120,122,120,122,118,121,121,123
122,123,122,120,123,121,122,120,120,120,121,123,125,121,121,117,123,121,121,122,121,122,121,122,121,123,120,121,117,121,122,122,120,121,121,123,124,121,121,119,122,122,121,123,123,122,121,119,120,121,120,121,118,122,122,121,119,120,121,122,118,121,122,124,121,121,122,121,122,121,121,120,119,121,121,123,124,120,121,120,121,121,121,121,120,123,122,118,120,122,121,121,118,120,122,120,120,122,121,122,124,121,121,119,121,123,122,122,121,120,121,119,120,121,120,120,121,121,122,125,120,120,120,121,119,121,123,123
122,121,122,122,121,121,121,123,121,121,121,122,125,120,121,119,121,121,121,121,119,121,122,122,122,122,121,122,117,121,122,121,120,123,122,121,122,121,122,121,121,121,120,123,123,121,121,117,120,122,121,121,120,121,122,120,120,121,120,122,118,122,122,122,122,123,122,122,123,121,121,123,120,119,119,123,124,121,121,116,120,121,121,121,120,121,121,119,116,122,122,121,118,120,121,119,120,121,121,123,121,120,121,117,123,122,122,121,123,121,122,120,121,121,122,121,121,121,120,121,119,121,120,121,118,121,122,120
122,123,122,122,122,121,121,122,122,122,122,122,123,121,121,119,120,122,122,122,119,120,120,119,121,122,120,120,119,121,122,122,121,122,120,122,124,122,121,122,122,122,122,121,123,121,122,120,119,121,120,122,120,121,123,119,120,122,121,121,119,121,122,121,121,122,122,123,122,121,120,119,120,122,122,122,126,121,121,119,120,122,120,122,119,121,121,122,119,120,121,122,116,121,122,118,121,122,121,122,123,120,121,120,120,122,121,122,124,121,121,120,121,121,121,122,119,121,122,122,119,119,119,122,118,121,122,121
121,122,122,122,123,120,121,119,121,122,122,121,123,121,122,119,123,123,120,122,120,121,122,125,120,122,121,121,118,121,122,121,121,122,121,121,123,121,122,120,122,122,121,123,123,121,120,119,121,122,123,122,120,122,121,123,120,122,121,122,120,122,122,122,120,121,121,122,122,120,121,119,121,122,122,122,124,121,120,120,121,122,122,122,119,121,120,122,119,121,121,121,120,122,122,120,120,120,122,122,122,122,121,119,121,122,123,122,124,120,120,121,120,122,122,122,120,120,120,123,121,122,121,121,118,120,120,120
120,122,122,123,123,120,120,116,121,122,121,121,122,121,121,119,119,121,121,121,119,119,121,119,122,123,120,122,119,121,122,120,120,121,121,123,123,121,120,119,121,122,122,121,124,121,123,120,121,122,122,122,120,120,121,120,121,123,122,122,118,122,122,122,121,122,122,120,121,120,121,119,121,123,121,122,123,121,121,120,120,122,120,122,119,121,124,123,120,121,119,122,118,120,121,119,122,122,122,122,122,121,121,121,120,121,121,121,124,121,120,119,120,121,120,122,120,121,120,121,121,122,121,122,118,121,123,124
121,121,121,122,123,122,122,121,121,121,121,122,123,121,121,120,122,123,121,121,117,120,123,121,120,121,121,121,119,121,120,119,122,123,121,123,122,121,121,119,121,121,122,122,123,120,122,119,120,122,121,121,120,121,121,122,119,121,121,121,120,121,122,122,122,122,122,123,123,121,120,121,121,121,121,122,123,121,123,118,119,121,121,122,121,121,121,121,122,122,120,121,119,121,123,122,122,121,120,122,125,121,122,120,121,122,123,122,124,121,121,120,121,123,120,121,118,121,122,121,122,120,121,122,117,121,122,123
117,121,120,121,123,121,122,117,122,120,121,122,124,122,120,119,120,123,121,122,120,121,121,120,121,123,121,121,118,121,121,120,121,120,121,123,124,121,121,121,121,122,121,121,122,121,121,121,121,123,121,121,121,121,121,121,119,121,120,122,117,121,122,122,121,123,121,122,124,120,121,120,121,122,121,121,123,121,122,118,121,121,123,122,119,121,121,120,122,122,120,122,120,122,122,123,120,121,119,121,121,122,122,120,121,122,122,121,123,121,120,117,122,121,121,123,121,121,122,123,119,120,120,121,118,121,122,122
121,122,121,123,123,120,119,115,122,122,120,120,121,121,120,120,122,120,121,121,120,121,122,124,120,121,121,121,119,121,122,123,120,123,120,122,122,121,121,113,122,122,120,121,123,121,124,125,119,121,121,122,120,121,118,120,119,121,120,123,118,121,121,119,121,122,122,122,124,120,121,123,121,122,121,121,122,122,123,122,117,120,121,122,120,121,119,114,120,122,122,119,114,121,121,117,123,123,120,121,122,121,123,126,122,122,120,122,125,122,122,122,118,119,120,121,122,120,118,118,123,121,121,119,115,122,128,128
123,122,122,122,121,126,132,121,118,121,122,122,122,120,116,118,123,123,121,120,120,120,126,122,119,120,121,122,120,118,122,122,122,122,120,123,124,122,124,123,122,121,121,122,123,122,126,123,117,122,122,122,120,121,117,112,121,121,121,121,118,120,123,123,121,121,121,121,122,113,100,119,121,122,121,122,127,131,135,121,120,122,119,123,124,120,120,127,114,122,119,114,108,118,117,110,127,122,122,124,122,119,123,121,122,123,122,123,128,130,117,127,120,122,122,119,107,119,123,111,120,120,119,120,123,118,121,113
129,124,123,125,127,132,97,133,120,122,121,120,119,124,138,125,114,120,120,121,113,122,121,118,121,120,120,119,124,121,129,127,127,123,119,119,118,125,146,133,118,120,122,123,124,118,104,107,122,124,122,120,112,128,129,123,117,119,114,115,116,110,107,207,121,121,123,123,123,129,120,138,125,123,122,121,122,123,133,110,125,122,121,118,117,120,136,129,127,125,122,124,122,122,107,150,114,121,120,120,119,122,101,136,132,123,119,121,128,123,134,208,109,119,122,122,121,129,118,240,127,122,119,120,118,120,141,242
112,121,119,120,120,117,104,242,130,122,120,118,114,112,134,238,115,121,121,121,121,122,109,152,122,120,119,120,116,122,136,129,105,114,121,124,125,125,125,123,123,121,120,119,115,120,111,121,124,125,121,124,119,129,128,121,116,123,121,126,127,118,106,121,122,122,120,119,114,119,124,121,121,122,121,120,125,118,119,120,119,121,121,119,109,124,107,121,128,121,121,118,121,138,154,120,113,122,122,123,121,118,105,122,123,120,120,124,127,121,117,120,124,126,122,121,133,124,129,120,120,121,120,121,114,115,95,120
118,122,120,120,121,116,124,121,122,121,122,122,123,125,138,0,115,123,122,123,120,114,88,73,138,124,121,119,115,121,140,241,105,119,121,121,123,124,120,187,125,122,122,123,123,120,103,135,126,125,122,123,121,118,106,124,122,122,119,118,119,114,113,122,123,120,120,121,121,121,128,121,120,122,119,123,130,121,101,121,126,123,122,132,130,126,133,120,122,119,119,123,128,123,137,121,117,124,124,121,125,124,131,120,126,121,120,120,123,125,135,120,119,121,123,121,112,126,132,120,121,123,120,118,107,117,117,121
122,120,119,123,122,120,117,121,120,120,121,119,121,128,121,120,124,122,121,122,124,120,144,119,117,122,121,120,115,119,139,120,110,117,120,121,121,119,120,120,120,119,120,120,119,117,115,120,127,122,120,119,116,123,122,120,109,118,118,121,119,119,122,121,127,121,120,120,122,123,143,120,110,122,123,119,115,125,82,121,119,119,120,120,119,115,107,121,127,122,121,123,125,133,149,120,117,122,121,122,127,120,118,119,120,121,119,115,103,117,127,120,134,124,120,117,123,121,129,120,117,119,121,122,119,122,121,121
111,121,121,122,122,121,110,120,123,123,125,129,126,127,143,120,129,122,120,118,111,119,130,120,121,124,123,125,127,127,123,121,119,119,119,122,122,118,126,121,125,121,121,125,121,124,144,120,114,123,122,123,121,117,110,120,128,125,122,122,119,125,136,120,91,105,117,120,124,126,131,120,134,127,123,123,126,123,131,120,120,121,121,122,117,119,116,120,119,123,122,124,120,125,99,121,118,123,123,128,124,120,107,120,119,119,119,124,129,123,116,121,126,123,124,120,118,123,133,121,117,121,121,116,100,116,114,120
122,119,115,119,121,122,128,121,116,120,120,121,122,117,121,120,123,125,124,124,125,127,95,121,124,121,121,122,119,118,103,121,119,121,121,122,119,122,128,121,118,120,121,123,130,122,143,120,134,123,122,122,122,120,139,120,99,123,120,122,119,124,131,120,124,120,120,121,123,111,85,121,123,123,123,122,123,120,105,121,127,123,122,122,124,126,138,119,126,123,122,123,120,125,134,119,114,124,122,123,125,122,119,121,124,119,119,119,130,116,120,120,115,122,121,123,122,123,106,121,124,123,123,122,109,123,142,119
110,118,118,115,112,117,112,121,121,121,120,121,128,121,118,120,123,120,121,122,121,126,130,121,121,122,120,121,109,121,138,120,116,120,119,123,130,117,111,120,119,122,122,120,125,122,112,120,125,119,119,121,118,124,138,120,114,120,119,121,119,118,131,120,127,123,121,119,115,117,123,120,122,121,120,120,120,122,124,120,115,118,120,122,120,125,131,120,117,118,118,120,118,121,131,121,119,119,119,117,118,113,119,120,120,124,118,118,116,110,110,121,128,122,120,120,119,124,141,120,116,121,121,122,118,120,118,119
121,122,121,122,116,115,108,121,121,121,122,125,128,121,121,120,120,120,120,124,133,119,124,121,120,121,121,122,115,120,119,120,116,120,120,121,117,118,118,121,131,125,124,125,128,125,141,120,106,120,121,123,122,119,116,120,122,121,120,118,116,115,130,120,129,123,121,122,122,121,124,119,117,120,123,125,123,123,127,119,121,122,121,121,119,118,113,120,129,122,121,123,119,120,125,120,123,124,123,122,123,122,127,120,125,123,121,122,124,122,132,120,122,123,122,125,121,118,102,120,119,119,118,119,117,118,114,121
124,121,120,118,118,124,127,120,121,123,121,122,131,119,117,120,124,120,122,122,118,124,128,120,115,123,121,120,119,128,120,120,125,122,122,120,116,116,115,121,117,124,124,126,127,122,108,120,126,123,120,123,120,122,121,121,123,122,123,124,122,124,133,120,120,122,120,120,124,118,117,120,121,121,121,119,119,122,131,120,123,123,122,125,124,124,135,120,118,121,121,123,121,122,107,121,118,122,120,117,113,114,121,120,119,121,120,121,126,121,118,120,123,121,120,118,105,113,114,120,122,121,120,123,139,124,128,121
128,125,123,125,128,123,124,120,124,123,121,122,124,119,129,121,107,119,121,123,120,124,124,120,132,122,118,118,111,115,105,121,122,124,122,122,124,124,132,119,117,121,123,123,124,120,123,119,125,124,123,122,120,116,118,120,122,125,123,132,129,123,125,121,123,122,122,122,124,120,126,120,121,121,120,121,124,124,123,121,118,120,120,122,121,118,111,121,119,122,123,122,119,122,121,120,122,122,120,121,135,122,119,120,121,121,120,119,125,117,107,120,126,123,121,121,119,121,130,121,118,120,122,123,122,130,137,120
132,124,122,119,115,126,143,120,114,123,120,122,125,119,117,120,134,124,121,123,122,128,142,120,113,119,120,122,119,119,114,120,123,122,123,124,124,124,123,120,132,125,123,120,123,122,111,121,123,122,122,123,120,118,96,121,119,121,122,122,119,120,109,121,122,122,120,123,124,117,114,121,123,123,123,122,126,119,122,120,109,119,122,125,123,121,125,120,118,124,120,123,117,121,120,121,124,123,121,121,118,122,117,120,117,119,118,116,124,111,116,120,123,121,120,117,112,118,119,120,115,122,121,122,119,122,127,120
120,120,120,124,128,124,133,119,115,122,122,117,111,115,79,120,122,122,122,121,128,132,126,120,121,122,122,122,115,113,106,121,125,124,122,122,123,121,115,120,120,118,120,121,125,127,126,120,123,123,121,120,116,117,131,120,124,121,121,123,120,127,177,119,124,119,120,122,123,118,126,119,113,119,121,121,120,119,120,121,120,121,123,130,128,128,129,121,127,120,118,120,122,114,110,120,118,120,119,119,121,118,117,120,113,124,123,124,122,120,116,120,126,122,122,123,118,120,129,121,116,121,123,123,119,126,120,121
128,120,119,121,121,117,122,120,111,123,124,124,122,116,116,120,121,119,119,119,122,123,133,120,127,121,119,120,116,118,128,120,117,119,119,120,119,116,105,121,119,120,119,121,123,121,131,120,123,121,121,122,121,127,136,120,116,120,121,119,116,119,120,121,129,122,121,120,121,116,124,120,113,119,121,122,126,125,131,121,113,116,120,120,121,119,108,121,123,124,122,122,117,121,121,120,119,121,120,124,126,122,115,120,117,120,121,122,124,125,113,120,115,118,118,118,115,117,126,120,121,121,120,123,119,121,122,120
121,123,122,119,113,120,121,121,124,121,121,121,129,119,141,120,128,120,120,122,116,118,119,120,112,121,121,123,122,121,118,120,111,120,119,119,119,120,120,121,124,119,120,122,122,117,130,120,132,123,123,123,124,130,159,119,121,124,120,118,114,118,120,120,109,116,119,122,122,119,129,120,126,122,121,122,123,118,123,121,119,122,122,122,120,121,121,121,127,122,123,121,117,122,115,120,119,120,119,120,121,117,120,121,124,123,121,124,133,121,116,120,118,121,121,123,120,119,125,120,123,123,122,123,126,126,134,119
121,123,122,122,123,120,117,121,118,123,122,124,124,129,127,120,122,120,120,119,119,118,119,120,127,122,120,122,120,120,124,120,118,122,122,118,117,119,121,121,126,120,120,122,124,121,135,120,121,121,118,119,117,117,111,120,122,123,122,124,120,120,132,120,120,120,121,123,124,121,111,120,113,119,120,122,124,117,109,120,121,120,120,119,115,119,120,121,122,121,121,122,120,124,126,121,122,123,123,123,124,128,139,120,126,123,121,127,123,119,122,120,115,122,121,122,130,117,115,120,123,122,121,125,126,131,124,120
116,120,119,118,117,112,120,120,124,120,119,119,119,123,127,120,118,119,119,121,122,122,134,119,126,123,122,123,122,123,126,120,120,121,121,122,122,125,130,120,122,123,123,125,128,119,101,120,131,122,122,124,121,125,142,120,115,121,121,121,118,121,118,120,121,120,122,121,122,120,114,121,130,123,122,123,122,124,119,121,125,126,124,123,119,120,118,121,103,116,119,120,119,119,118,120,127,123,120,123,123,119,117,120,123,122,121,125,123,123,122,120,128,125,121,122,124,126,119,119,115,121,121,122,126,117,112,121
118,120,120,119,114,116,119,121,117,121,121,119,119,118,106,121,119,122,122,121,115,116,112,121,120,122,122,124,124,128,142,119,115,122,123,123,121,120,114,120,123,121,120,121,121,120,127,120,121,123,123,125,128,129,142,120,117,123,117,117,111,118,118,121,92,105,118,120,122,121,118,120,135,125,121,122,125,123,129,120,124,122,123,122,118,119,129,120,123,123,120,123,120,120,123,120,119,121,122,119,119,119,109,120,125,121,119,121,123,120,123,120,122,122,122,124,123,125,125,120,118,122,120,121,116,119,121,120
118,120,120,123,128,121,122,120,115,121,120,121,122,120,110,120,130,122,121,121,118,119,124,121,118,123,121,122,117,123,124,121,123,121,121,120,124,117,127,120,119,122,122,123,123,122,128,119,122,122,122,121,116,117,121,120,118,121,121,122,121,121,133,120,127,124,122,122,121,120,115,121,102,113,119,121,128,118,123,120,128,122,121,119,115,124,133,119,119,122,121,123,121,123,117,121,118,121,120,121,121,121,122,120,122,122,121,121,121,118,107,121,112,121,123,123,120,121,121,120,122,121,121,125,118,125,124,120
123,123,121,122,124,120,117,121,113,121,121,122,124,122,115,121,134,121,120,121,118,121,144,120,114,121,122,121,117,119,115,121,119,122,122,122,124,125,122,120,121,121,119,122,123,121,126,120,120,121,121,120,119,118,119,120,127,123,122,121,119,121,114,120,123,123,123,127,125,126,112,121,120,123,121,124,126,120,131,121,111,120,121,123,122,120,107,121,126,119,121,119,118,118,128,120,127,123,121,117,115,117,118,120,120,123,123,126,129,126,122,120,117,121,122,123,125,120,120,120,120,119,118,117,111,116,122,120
123,123,121,125,130,128,130,120,124,123,121,122,122,121,125,120,114,120,121,124,126,120,118,121,125,122,121,121,116,123,125,121,121,122,120,121,122,121,128,121,123,124,121,123,124,125,131,120,120,120,120,121,119,122,118,120,119,118,119,121,119,121,130,120,121,122,123,125,124,118,124,120,125,122,119,119,119,120,116,120,119,123,122,122,117,118,121,120,118,120,122,123,120,124,125,120,123,121,122,124,125,123,113,120,123,122,122,121,121,117,109,121,121,121,120,119,111,121,122,120,120,119,120,122,120,127,129,121
118,121,120,121,121,120,116,120,126,124,123,124,125,123,116,120,122,122,122,119,116,118,119,120,121,122,121,121,118,120,123,121,117,121,122,123,123,117,108,120,115,119,119,121,124,122,116,121,121,124,122,120,118,127,142,120,121,124,122,121,116,121,128,121,125,124,122,122,124,122,126,120,113,118,120,120,123,121,121,121,128,124,124,122,120,123,125,120,115,121,120,122,120,119,113,120,130,124,122,121,122,122,124,121,117,120,120,121,120,119,102,121,122,119,122,123,122,126,134,120,119,123,121,125,123,122,120,120
121,120,120,121,121,119,113,121,116,119,122,124,126,117,116,121,133,122,120,120,115,117,123,120,106,120,120,122,125,122,119,120,125,122,120,122,124,122,126,120,121,122,122,122,122,121,121,121,120,119,119,120,117,119,122,120,122,124,121,122,116,114,115,121,128,123,122,122,124,118,114,120,118,120,120,121,123,118,115,121,123,122,123,121,117,123,129,121,121,123,122,123,121,121,118,120,129,122,119,121,121,118,122,121,116,122,122,124,126,125,121,120,119,120,121,120,119,119,114,121,122,122,121,121,116,120,122,121
121,122,120,122,122,118,114,120,121,123,122,125,128,125,123,120,122,121,121,121,121,118,122,120,122,122,119,119,116,125,124,120,119,120,121,122,124,114,117,120,118,121,121,121,123,116,106,121,123,124,123,123,121,125,116,120,130,126,122,123,121,127,133,120,114,122,123,124,124,126,132,119,122,123,122,122,122,120,116,120,118,120,120,121,117,119,116,120,129,124,122,124,123,122,125,120,119,119,119,120,121,115,112,121,118,121,123,123,127,121,121,121,120,123,122,126,116,123,123,120,125,121,121,126,129,130,136,120
119,123,124,124,126,124,118,121,115,121,122,123,122,117,114,120,124,122,121,121,118,121,122,120,115,121,121,121,115,117,119,120,122,122,121,123,126,121,119,120,123,120,120,122,124,122,121,120,127,124,121,123,122,122,136,120,113,120,121,119,114,120,119,120,128,125,123,123,124,126,131,120,111,123,121,122,122,116,107,121,120,117,120,121,119,118,116,121,121,121,120,120,115,120,123,120,123,122,122,121,123,117,127,119,119,123,119,121,123,122,123,120,124,122,124,125,127,127,136,120,119,120,119,118,112,119,116,120
120,121,121,122,129,117,121,120,123,121,120,121,123,125,125,120,121,122,121,122,121,122,122,121,122,123,123,122,117,123,129,120,122,123,120,121,121,117,121,121,123,122,122,123,126,125,135,120,117,121,121,121,117,120,126,121,124,122,120,121,118,122,123,120,125,121,122,122,123,120,117,120,115,123,121,123,124,122,120,121,122,121,122,121,121,123,127,121,122,122,122,121,118,118,121,120,122,121,119,122,125,120,126,121,119,120,119,116,118,116,112,120,124,122,120,121,118,123,120,121,114,122,121,122,120,121,114,121
122,122,121,120,119,122,127,120,124,122,122,123,124,120,123,120,120,122,122,121,115,121,135,120,120,123,123,124,124,122,122,119,119,120,121,123,123,123,119,120,124,123,121,122,123,120,120,120,116,119,121,123,120,128,122,121,120,121,121,120,117,121,124,120,118,123,121,123,123,118,111,120,120,119,119,121,125,123,126,120,118,121,120,121,118,119,121,120,121,123,121,123,120,121,121,120,130,123,121,123,125,128,129,120,117,121,122,123,124,119,121,120,118,121,120,122,121,123,129,121,120,120,119,119,116,122,116,121
124,121,122,121,124,123,138,119,116,122,122,123,120,120,117,120,126,122,122,123,124,122,121,120,114,119,120,125,121,120,122,120,122,122,122,122,121,121,122,120,120,122,120,122,122,121,125,120,126,123,119,120,122,123,121,120,122,122,122,123,119,124,125,120,119,121,121,121,122,120,118,120,119,120,122,122,122,121,120,119,122,121,121,122,123,122,116,120,112,123,121,121,117,121,120,120,125,123,122,123,125,126,113,121,119,122,121,121,121,117,115,121,125,122,122,122,120,123,124,121,121,120,119,115,109,118,119,120
126,125,121,123,129,121,120,120,118,123,121,124,123,121,122,120,120,120,122,123,118,122,120,120,123,121,122,121,119,123,128,121,117,122,121,122,121,120,119,120,119,121,121,121,123,123,119,121,122,121,121,122,121,122,121,120,119,121,120,122,120,124,143,119,117,120,121,122,123,121,125,120,124,123,121,123,124,123,128,119,115,118,119,118,117,119,114,120,121,122,122,121,119,118,119,121,121,121,120,123,125,124,123,120,121,122,122,124,123,119,118,120,118,120,120,120,117,119,110,120,123,122,121,122,121,127,123,120
121,121,119,117,115,115,113,121,118,120,120,120,123,121,126,120,117,120,121,119,117,119,116,121,127,122,123,123,122,123,127,120,122,122,121,122,122,121,117,121,119,122,122,123,125,124,126,119,117,120,120,122,117,120,123,120,128,123,121,123,121,120,136,120,120,122,120,122,123,122,119,120,113,116,118,121,122,121,127,120,124,123,122,123,119,124,120,120,123,122,121,121,118,119,114,121,120,120,120,121,124,122,135,119,119,121,120,121,121,120,119,120,119,119,120,123,120,121,120,120,120,120,120,121,120,122,126,120
117,121,121,123,127,121,114,120,120,124,122,122,125,124,124,120,121,120,120,122,122,119,118,121,121,120,121,121,118,119,121,120,123,121,119,121,123,122,129,121,118,121,122,122,123,122,117,120,120,120,121,122,119,121,114,120,127,124,122,124,121,124,123,120,119,119,118,120,121,120,121,120,122,122,122,122,122,121,125,121,121,122,122,122,121,126,126,120,120,122,120,119,113,121,125,120,119,120,122,121,121,118,121,121,121,119,119,122,127,118,113,120,123,121,121,122,121,120,121,120,109,120,122,121,116,116,111,120
129,125,122,122,122,123,127,120,119,122,122,122,122,117,118,120,116,118,121,120,118,116,112,121,124,123,122,123,121,123,117,121,119,122,120,126,125,120,121,120,118,122,122,122,122,125,128,121,121,119,120,119,117,119,123,121,117,121,119,122,121,120,118,121,120,122,120,122,123,122,121,120,121,123,122,121,118,121,124,121,118,120,120,120,122,116,116,121,119,122,122,124,123,131,119,121,121,121,122,122,122,115,114,121,122,121,121,120,121,122,122,120,117,121,120,120,120,120,125,120,121,119,119,121,118,120,121,121
115,121,121,123,122,120,115,120,121,122,121,124,125,123,118,119,122,122,121,122,121,127,144,120,120,123,122,123,122,124,117,119,107,117,121,122,122,120,109,121,125,122,121,120,123,121,127,120,122,121,121,123,120,122,123,120,118,120,122,122,121,120,116,121,121,121,119,120,121,122,125,120,122,123,122,122,127,124,120,120,120,122,123,124,119,117,116,120,119,119,119,120,118,120,118,120,116,120,121,123,123,124,120,120,119,122,122,122,122,118,120,120,124,124,122,122,119,122,127,120,121,122,121,120,118,125,127,120
119,120,120,122,123,121,115,120,119,121,122,123,124,120,122,120,119,122,121,121,120,122,120,120,121,120,121,120,119,119,126,121,125,123,122,123,123,122,120,120,117,120,120,122,123,120,110,120,121,120,121,120,117,120,127,121,124,122,120,120,118,119,117,120,123,123,122,123,125,120,123,120,120,121,121,122,122,119,121,120,120,122,121,121,120,120,118,119,123,123,124,124,121,128,131,121,121,120,120,120,119,118,122,121,119,120,121,122,122,119,125,120,120,122,122,123,123,123,114,121,122,122,120,120,117,124,126,120
120,120,119,118,119,117,121,120,123,121,121,123,125,122,122,120,120,122,122,123,123,120,116,120,120,120,119,120,118,115,112,120,124,122,122,123,123,122,128,121,115,122,121,124,123,118,111,120,120,122,122,123,118,122,124,120,121,121,120,122,120,122,124,121,119,122,121,120,121,121,123,120,120,120,122,123,124,121,118,120,120,120,119,119,117,117,117,121,123,124,120,122,121,121,128,120,118,121,121,121,119,116,113,119,121,121,121,122,123,124,124,120,122,123,122,123,120,120,124,120,118,121,121,119,113,118,107,121
120,122,122,121,122,120,122,121,122,122,121,124,121,118,115,120,114,120,121,121,119,122,122,120,124,123,121,120,119,121,123,121,125,123,121,123,125,123,132,120,120,123,120,122,122,120,120,120,119,119,120,121,121,122,123,120,120,123,122,122,119,118,120,121,121,122,121,122,125,121,110,120,119,120,122,123,125,121,118,119,122,122,121,121,120,120,126,120,119,120,120,121,120,121,123,120,121,121,121,122,118,120,117,120,114,121,121,123,126,124,116,119,120,119,120,119,118,118,124,120,123,123,121,122,119,116,113,120
120,124,122,123,124,122,122,120,128,121,120,123,125,126,128,120,117,121,121,121,120,120,120,120,120,121,119,120,117,119,123,121,120,122,122,123,125,122,124,120,124,121,122,123,124,122,123,119,120,120,122,122,118,125,115,121,118,120,120,122,119,120,122,121,123,122,121,121,121,123,127,120,125,124,122,123,125,122,129,120,118,121,121,122,118,116,120,120,122,123,121,122,120,124,124,121,122,120,122,122,122,122,123,120,121,121,122,122,122,118,118,120,119,120,119,122,123,121,120,120,124,121,120,120,117,121,121,121
119,121,120,122,124,120,120,121,124,122,121,122,122,123,125,120,113,120,121,121,118,124,125,120,119,123,122,123,123,125,123,120,121,122,121,121,121,121,130,120,122,121,120,122,123,118,111,120,115,120,122,122,120,120,121,120,120,122,120,122,120,122,120,121,121,122,121,122,124,121,120,121,117,120,122,122,121,122,120,120,126,124,122,123,121,124,122,120,116,119,119,120,117,120,120,120,124,122,122,123,123,121,124,121,120,121,120,122,125,125,121,120,118,119,122,121,120,119,120,120,120,121,119,121,118,119,110,120
121,122,121,124,124,121,119,120,118,121,121,122,122,119,118,120,126,122,122,121,120,121,122,121,120,121,120,122,119,119,120,120,124,122,123,123,124,120,125,120,124,122,121,123,123,125,132,119,117,120,119,119,118,117,111,120,121,123,122,122,120,120,116,121,115,117,119,118,117,118,123,121,120,123,121,122,117,120,115,120,126,121,121,121,123,129,139,120,123,123,121,121,119,117,119,121,121,121,121,123,123,124,124,121,122,121,122,123,125,121,124,119,121,122,120,121,118,117,109,120,120,122,123,125,121,125,117,121
121,123,120,122,123,123,121,121,121,122,119,120,124,122,124,120,125,121,123,121,120,128,128,120,120,122,122,122,117,120,123,121,121,122,121,122,123,119,122,120,124,122,121,123,123,126,119,119,113,120,123,123,120,119,118,120,123,122,122,122,119,123,124,121,120,121,121,123,123,122,121,120,121,121,120,121,121,119,118,120,122,122,122,122,121,124,138,120,119,120,122,122,120,118,111,121,119,122,119,121,119,119,116,121,121,121,121,124,126,123,117,120,120,120,120,120,120,121,121,120,119,121,120,119,117,122,130,120
123,123,121,124,122,122,122,120,121,121,122,121,119,116,114,120,121,121,121,122,124,123,125,120,119,121,122,124,118,119,121,121,118,120,122,119,118,120,118,120,123,120,120,121,125,122,127,120,118,122,122,123,120,119,114,121,119,121,121,122,119,121,128,121,122,121,120,121,123,119,111,120,105,117,122,123,124,123,117,120,124,122,121,122,121,119,118,120,121,121,121,121,119,120,117,120,121,122,122,123,123,122,119,119,117,121,122,121,121,122,123,120,120,120,122,123,121,124,122,120,120,122,119,119,117,119,121,121
122,121,119,119,119,118,129,120,119,121,121,122,121,119,108,120,123,123,120,122,119,121,121,120,119,121,121,121,121,121,123,120,122,121,120,123,129,125,122,120,123,122,122,116,118,117,117,120,121,122,122,122,120,121,122,120,118,121,120,122,119,122,123,121,124,123,120,123,125,121,122,120,120,122,123,123,124,121,116,120,124,121,122,121,118,120,127,120,121,122,121,121,119,120,122,120,118,120,122,122,121,119,123,120,120,122,120,122,124,121,121,120,120,121,121,122,119,120,122,121,119,122,121,121,118,118,114,121
126,122,120,124,120,121,120,120,118,122,121,123,125,121,116,120,117,120,122,122,118,119,120,120,122,121,122,122,120,122,118,120,122,123,121,122,122,126,125,120,120,123,122,124,124,122,125,120,118,120,120,120,121,119,125,120,120,122,121,121,119,119,114,121,120,123,122,121,120,119,111,121,122,120,120,122,123,122,126,120,121,121,122,122,121,120,119,120,120,122,120,121,120,123,132,120,122,122,121,121,123,122,129,120,123,122,120,122,124,120,123,119,118,120,121,121,120,119,120,119,120,122,121,121,118,122,125,120
121,120,121,123,125,120,126,119,119,121,120,122,127,119,119,120,120,121,121,119,112,119,121,120,119,121,121,123,123,120,121,121,122,123,120,121,123,122,125,121,118,120,121,122,122,121,120,120,121,122,122,122,121,123,126,121,118,121,122,122,119,121,122,120,124,122,121,123,124,121,124,120,122,123,121,121,123,126,131,119,119,119,119,120,118,119,120,121,119,121,120,123,119,120,114,120,121,121,121,121,124,122,123,121,122,122,121,122,122,121,123,120,121,121,120,120,120,123,128,120,118,121,120,122,119,118,118,120
122,121,122,123,126,123,136,120,119,121,120,119,118,117,117,120,123,123,122,122,120,124,123,120,119,121,121,123,121,121,123,120,116,120,121,122,122,121,124,120,121,123,122,123,124,119,123,120,120,120,120,122,119,120,118,120,120,121,120,121,119,121,120,121,121,123,122,123,122,119,114,120,116,121,121,122,121,119,121,120,121,122,121,123,122,123,127,120,125,122,121,122,120,122,119,120,116,121,122,126,125,119,122,121,123,123,121,122,125,126,122,120,116,120,121,121,119,121,120,121,122,120,120,122,122,122,125,121
123,122,121,120,120,120,120,120,119,121,120,123,126,122,124,119,120,122,119,121,121,122,126,120,121,121,121,121,114,120,119,120,124,121,122,118,121,123,126,120,121,123,121,124,126,121,120,120,120,123,122,122,121,120,118,120,121,123,123,120,116,122,126,120,122,121,121,122,125,122,123,120,119,121,118,121,122,120,119,120,118,120,120,121,120,122,116,120,123,124,121,122,117,119,124,121,120,123,120,122,123,121,124,120,124,122,123,123,124,120,122,120,119,121,120,122,120,121,121,120,123,122,119,122,120,120,120,121
115,120,121,121,120,121,118,119,124,123,122,123,124,122,126,120,123,123,122,122,118,119,110,120,123,122,122,122,121,121,126,120,117,122,123,122,119,122,122,120,124,120,119,116,115,115,115,120,120,121,119,119,114,115,122,120,114,119,120,122,120,121,116,121,120,121,120,122,122,120,119,120,120,123,122,122,124,120,121,120,124,122,122,122,120,125,125,120,117,120,120,121,119,121,122,121,123,122,122,122,123,121,118,120,125,123,121,123,124,123,126,120,118,121,122,122,120,118,115,121,121,123,121,119,117,125,106,121
124,121,122,124,125,123,126,120,111,118,118,120,119,117,119,120,120,120,120,123,121,122,118,119,121,122,124,122,120,123,124,114,122,122,122,129,125,120,116,46,124,121,121,122,124,119,118,0,117,122,122,124,123,123,131,1,118,120,121,120,117,122,121,143,118,122,121,122,120,119,121,241,123,122,120,122,128,125,125,239,119,122,120,122,119,121,122,158,117,121,120,122,119,118,111,128,120,121,122,122,124,123,127,80,122,121,120,121,119,119,120,54,120,123,123,124,122,122,124,64,120,120,121,123,123,123,124,126
122,123,120,119,121,122,129,206,119,122,123,124,125,122,111,177,123,121,122,122,122,121,121,132,119,122,120,121,116,120,122,124,124,122,122,122,124,122,123,121,117,121,122,129,134,122,124,120,121,122,121,121,123,120,110,120,121,123,120,120,122,122,132,120,121,120,121,123,122,121,121,120,119,121,120,122,123,122,119,120,119,120,121,121,119,122,123,120,121,122,121,123,120,122,124,120,124,122,121,122,123,121,117,121,114,120,121,123,127,122,117,119,119,121,120,120,118,118,118,120,120,121,121,121,120,121,119,120
120,121,122,122,123,122,121,119,120,120,121,122,123,121,128,119,119,121,121,119,117,120,117,121,120,122,121,120,119,118,114,121,121,121,121,123,122,120,122,120,122,122,123,123,124,121,123,120,120,121,122,121,119,120,120,120,121,123,120,123,120,123,122,119,122,121,119,118,118,121,126,112,123,123,122,124,125,124,128,128,119,121,122,124,126,122,118,122,122,122,120,117,116,118,132,120,124,122,121,121,120,120,117,120,118,123,121,123,123,120,111,120,123,122,122,123,121,121,132,119,124,122,121,122,120,121,123,121
117,122,123,123,125,121,119,120,123,120,121,122,123,120,122,120,118,120,120,122,122,121,121,120,123,122,119,119,116,122,124,121,121,121,120,122,124,121,121,121,118,121,123,123,124,121,119,119,116,119,120,121,120,122,125,120,123,122,121,122,118,119,117,121,120,122,121,122,121,119,122,110,124,122,121,123,123,120,119,124,118,121,122,121,120,122,123,121,118,121,122,122,120,120,116,120,119,121,120,122,124,119,118,121,124,123,122,120,124,121,115,120,124,121,120,121,118,119,125,120,119,122,121,123,119,120,120,121
119,122,120,122,123,121,120,121,119,119,119,120,120,119,120,120,120,121,121,121,121,122,121,121,120,122,121,121,120,121,114,121,122,121,121,122,123,120,123,120,121,122,121,122,124,121,122,120,118,119,121,119,116,117,121,121,123,124,121,123,121,122,130,120,117,119,120,122,122,121,119,120,120,123,122,123,124,122,121,121,125,123,121,122,121,124,120,120,118,121,120,121,118,119,121,121,123,121,121,122,126,122,121,121,123,121,121,122,123,122,124,120,118,119,120,122,121,120,123,120,115,120,121,120,117,117,111,121
124,123,120,123,123,123,136,120,117,121,122,123,125,119,118,120,120,122,120,121,119,121,122,121,121,121,123,123,119,120,119,120,116,120,121,122,122,120,114,120,125,122,118,120,124,123,128,89,120,121,120,122,121,118,107,36,117,121,122,121,122,122,126,61,121,121,120,125,122,124,123,92,121,121,121,124,126,120,117,159,123,120,120,119,119,120,121,242,120,122,122,125,128,123,123,162,122,120,119,121,122,118,119,129,122,121,120,118,121,122,127,122,122,123,122,123,123,122,121,121,119,122,121,123,120,121,121,121
122,121,121,123,123,126,125,119,123,122,123,122,122,122,119,120,124,124,121,121,119,123,123,120,116,121,121,122,119,121,125,120,121,121,119,121,124,121,116,121,120,121,121,122,123,120,123,119,119,121,121,121,118,119,117,113,120,122,121,122,120,121,121,123,118,121,121,121,120,118,115,97,120,121,120,123,126,120,110,17,120,121,121,121,118,118,113,0,123,122,123,125,120,123,125,3,119,121,121,129,132,122,129,101,118,123,123,124,124,120,113,175,122,121,120,121,120,122,110,242,123,122,120,121,118,120,123,242
118,121,122,123,122,122,118,157,119,120,120,121,120,118,111,128,117,120,121,122,121,126,133,122,123,122,121,120,114,119,124,121,119,122,121,122,123,122,120,121,121,123,122,123,125,120,120,120,121,121,120,121,118,120,126,120,120,120,120,122,117,119,124,120,120,122,120,122,122,122,117,120,121,122,123,121,118,121,120,121,124,121,122,120,124,122,122,121,118,120,121,121,116,121,120,120,123,122,121,122,121,121,123,119,120,121,119,120,121,122,121,120,121,122,121,122,118,122,133,120,119,122,121,121,119,120,119,121
121,121,123,123,122,124,133,120,117,120,120,122,121,120,119,119,127,123,122,122,121,121,125,120,122,122,122,121,119,126,126,121,119,121,121,122,124,120,120,120,119,122,120,123,123,122,120,120,119,120,121,121,118,121,119,120,120,122,122,122,118,121,117,120,122,122,121,120,116,120,124,120,119,120,123,122,124,121,124,120,121,122,120,121,120,121,129,120,118,121,122,123,122,123,125,100,119,120,120,119,122,117,105,86,122,121,120,117,115,122,128,61,121,123,122,123,123,122,125,150,117,119,120,122,119,122,115,163
120,122,121,123,121,122,123,128,122,121,121,121,125,121,122,121,119,122,121,120,119,119,118,121,123,122,121,123,121,125,130,121,120,122,121,122,122,120,118,121,122,124,121,122,125,122,119,119,121,121,120,121,118,122,124,119,120,120,121,123,120,122,121,121,116,119,121,121,121,119,118,120,123,122,121,122,127,120,120,70,120,120,120,123,121,120,118,65,117,120,120,118,112,117,121,35,124,123,121,123,126,124,127,0,117,119,122,123,123,119,116,77,122,123,120,120,119,123,126,219,119,119,120,121,117,119,114,241
123,123,122,122,122,122,128,213,123,123,121,121,123,120,120,140,121,122,122,123,122,124,122,124,122,121,121,122,119,121,129,121,117,121,120,120,122,121,115,121,125,122,120,122,123,123,134,119,124,122,122,121,121,121,119,120,119,119,119,117,114,119,119,120,116,120,122,122,123,121,116,119,124,123,120,123,125,124,124,119,118,122,121,122,120,121,120,101,121,120,121,121,117,119,124,85,120,122,120,121,124,122,120,65,123,123,122,122,122,121,122,43,120,120,121,121,118,120,123,140,120,122,121,123,121,122,124,180
