0.7599055171012878,0.6102820634841919,0.16794423758983612,-0.14796702563762665
0.7611541152000427,0.610010027885437,0.16436026990413666,-0.14668995141983032
0.7622619271278381,0.609725832939148,0.1612360030412674,-0.14558249711990356
0.7631207704544067,0.6094900369644165,0.15885844826698303,-0.1446814239025116
0.7636139392852783,0.6094013452529907,0.1573893278837204,-0.14405690133571625
0.7640433311462402,0.6091079115867615,0.1566389799118042,-0.14383848011493683
0.7643970251083374,0.608670175075531,0.1564617156982422,-0.14400584995746613
0.7645576596260071,0.6082330346107483,0.15700191259384155,-0.14441081881523132
0.764628529548645,0.6077015399932861,0.15817931294441223,-0.14498741924762726
0.764516294002533,0.6071776151657104,0.1598551869392395,-0.14593307673931122
0.7644703984260559,0.6065305471420288,0.16143645346164703,-0.14711901545524597
0.7644069790840149,0.605904221534729,0.162893146276474,-0.1484178751707077
0.7643346190452576,0.6053690910339355,0.164107084274292,-0.14963212609291077
0.7642569541931152,0.6050339937210083,0.16486907005310059,-0.15054404735565186
0.7641544342041016,0.6049744486808777,0.16508011519908905,-0.15107135474681854
0.7639840245246887,0.605256974697113,0.16484376788139343,-0.1510600447654724
0.7635622024536133,0.6060823202133179,0.16419820487499237,-0.1505853533744812
0.7630237936973572,0.6072194576263428,0.16315770149230957,-0.14986258745193481
0.7625377178192139,0.6083823442459106,0.16185002028942108,-0.14903686940670013
0.7620192170143127,0.6095309853553772,0.16035506129264832,-0.14861005544662476
0.7616575956344604,0.610381543636322,0.15873342752456665,-0.1487138420343399
0.7612203359603882,0.6112300753593445,0.1572512835264206,-0.1490418165922165
0.7608152031898499,0.6119077801704407,0.15619316697120667,-0.14944185316562653
0.7604185938835144,0.6124181151390076,0.15582263469696045,-0.14975591003894806
0.7600551247596741,0.6127781271934509,0.1560307890176773,-0.14991211891174316
0.7595428824424744,0.6132266521453857,0.15664593875408173,-0.15003259479999542
0.7592383027076721,0.6133564114570618,0.157320037484169,-0.1503380537033081
0.758921205997467,0.6135755181312561,0.15778321027755737,-0.15055915713310242
0.7587070465087891,0.6137071251869202,0.15834945440292358,-0.15050862729549408
0.758698046207428,0.613584041595459,0.15931011736392975,-0.15004085004329681
0.7584884762763977,0.6137049794197083,0.16063977777957916,-0.1491856575012207
0.7583003044128418,0.6138710975646973,0.1618412435054779,-0.14815624058246613
0.7580177783966064,0.6142706871032715,0.16280074417591095,-0.14688995480537415
0.7576562762260437,0.6148160696029663,0.1637117713689804,-0.14545340836048126
0.7572160959243774,0.6154515147209167,0.1646801382303238,-0.14395739138126373
0.7565613389015198,0.6163411140441895,0.16569100320339203,-0.14242598414421082
0.7558352947235107,0.617324948310852,0.1665067821741104,-0.14106187224388123
0.7549421191215515,0.6185174584388733,0.16707837581634521,-0.13994085788726807
0.7540473937988281,0.6197159886360168,0.1674387902021408,-0.13902831077575684
0.7531045079231262,0.6209446787834167,0.16776423156261444,-0.13826286792755127
0.7521507740020752,0.6221152544021606,0.16812241077423096,-0.13775645196437836
0.7512344717979431,0.6231774687767029,0.16849634051322937,-0.1374977082014084
0.7504392862319946,0.6240435838699341,0.1688517928123474,-0.1374761164188385
0.7495501637458801,0.6250266432762146,0.16919253766536713,-0.1374419629573822
0.7486559152603149,0.6259751319885254,0.16959194839000702,-0.13750684261322021
0.7477144598960876,0.6269727349281311,0.1699703186750412,-0.13761737942695618
0.7468491196632385,0.6278603076934814,0.17028845846652985,-0.13787592947483063
0.7460736036300659,0.6286954283714294,0.17034204304218292,-0.13820238411426544
0.7454777956008911,0.6293227672576904,0.17023758590221405,-0.13869033753871918
0.7449791431427002,0.6298741102218628,0.17011557519435883,-0.13901637494564056
0.7444819808006287,0.6303724646568298,0.17028196156024933,-0.13921630382537842
0.7441720962524414,0.6306558847427368,0.17043478786945343,-0.13940289616584778
0.7439156770706177,0.6309206485748291,0.1704043745994568,-0.13961024582386017
0.7437834739685059,0.6310977339744568,0.17018502950668335,-0.13978183269500732
0.743659257888794,0.6312789916992188,0.169979527592659,-0.13987445831298828
0.7436713576316833,0.6313447952270508,0.1697407215833664,-0.1398034393787384
0.7436526417732239,0.6314992308616638,0.16953027248382568,-0.1394602507352829
0.7436684370040894,0.6316366791725159,0.16936105489730835,-0.138957679271698
0.7436902523040771,0.6317173838615417,0.1693158596754074,-0.13852891325950623
0.7438622713088989,0.6316128373146057,0.16919048130512238,-0.13823510706424713
0.7439600229263306,0.631534218788147,0.1692003756761551,-0.13805602490901947
0.7442242503166199,0.6312163472175598,0.16934598982334137,-0.13790571689605713
0.7443151473999023,0.63107830286026,0.16968974471092224,-0.13762487471103668
0.7442813515663147,0.6310100555419922,0.17028425633907318,-0.1373862773180008
0.7442753911018372,0.6309150457382202,0.17086966335773468,-0.13712787628173828
0.7442604303359985,0.6308448910713196,0.1713516265153885,-0.13693012297153473
0.7442870140075684,0.6306846737861633,0.17177680134773254,-0.13699105381965637
0.7441788911819458,0.6307231783866882,0.17206349968910217,-0.13704068958759308
0.7439698576927185,0.6309112906455994,0.17231222987174988,-0.1369977444410324
0.7437196969985962,0.631182849407196,0.17254258692264557,-0.1368156224489212
0.7434112429618835,0.6315293908119202,0.1728026568889618,-0.13656331598758698
0.7431045174598694,0.6319423913955688,0.1728387475013733,-0.13627679646015167
0.7427361607551575,0.6324867010116577,0.17257359623908997,-0.13609567284584045
0.7424654960632324,0.632953405380249,0.17208586633205414,-0.1360199749469757
0.742236852645874,0.6333684325218201,0.17160065472126007,-0.1359492391347885
0.7419813871383667,0.6337850093841553,0.17130044102668762,-0.13578103482723236
0.7418303489685059,0.6340710520744324,0.17112265527248383,-0.13549496233463287
0.7415667772293091,0.6344037652015686,0.17117783427238464,-0.13530990481376648
0.7415569424629211,0.6344161033630371,0.17117832601070404,-0.13530568778514862
0.7415487766265869,0.6344215273857117,0.17118829488754272,-0.13531146943569183
0.7414523959159851,0.6344422101974487,0.17140911519527435,-0.13546356558799744
0.7413906455039978,0.6344059705734253,0.171651691198349,-0.13566385209560394
0.7414352297782898,0.6342355608940125,0.17194333672523499,-0.1358477622270584
0.7413861155509949,0.6341723203659058,0.1723662167787552,-0.13587501645088196
0.7413089871406555,0.6341372132301331,0.17289482057094574,-0.1357879638671875
0.7413464188575745,0.6339676976203918,0.17336705327033997,-0.13577352464199066
0.7412233948707581,0.634049117565155,0.1736339032649994,-0.13572394847869873
0.7412204742431641,0.6340453028678894,0.17364929616451263,-0.13573747873306274
0.7410899996757507,0.634218692779541,0.1737527847290039,-0.13550733029842377
0.7410534620285034,0.6343395709991455,0.17376185953617096,-0.13512951135635376
0.7407655119895935,0.634730875492096,0.17388881742954254,-0.1347072273492813
0.7405121922492981,0.6350598931312561,0.17403548955917358,-0.1343594640493393
0.7404348254203796,0.6351839900016785,0.17404904961585999,-0.13418106734752655
0.7404218912124634,0.6352155804634094,0.1740172803401947,-0.13414403796195984
0.7403687238693237,0.6353330612182617,0.17402763664722443,-0.1338675171136856
0.7402142882347107,0.6354579925537109,0.17438946664333344,-0.13365696370601654
0.7401099801063538,0.6354915499687195,0.17480944097042084,-0.13352692127227783
0.7400463819503784,0.6354604363441467,0.17517127096652985,-0.13355295360088348
0.740077793598175,0.635265588760376,0.17553511261940002,-0.13382801413536072
0.7400400638580322,0.6350903511047363,0.17594674229621887,-0.13432659208774567
0.7401326298713684,0.6348063945770264,0.1761816143989563,-0.13485008478164673
0.7402152419090271,0.6345653533935547,0.1764712631702423,-0.1351526528596878
0.7401840686798096,0.6344500780105591,0.1769152134656906,-0.13528388738632202
0.7401427030563354,0.6343533992767334,0.17734523117542267,-0.13540028035640717
0.7400344610214233,0.6343567967414856,0.17760589718818665,-0.135634183883667
0.7399712800979614,0.6343170404434204,0.17767131328582764,-0.13607843220233917
0.7400010824203491,0.6342563629150391,0.17746314406394958,-0.13647043704986572
0.7400493025779724,0.6342210173606873,0.17719139158725739,-0.13672581315040588
0.7400652170181274,0.634222686290741,0.17702975869178772,-0.13684120774269104
0.7400177121162415,0.6343364715576172,0.17683562636375427,-0.13682164251804352
0.7400270700454712,0.6344399452209473,0.1764664649963379,-0.13676801323890686
0.740101158618927,0.6345316171646118,0.1758849322795868,-0.1366909146308899
0.7401406168937683,0.6346449255943298,0.1753280907869339,-0.13666647672653198
0.740241289138794,0.6346926093101501,0.17483660578727722,-0.1365293562412262
0.7403295040130615,0.6347549557685852,0.17449022829532623,-0.1362045556306839
0.7404366731643677,0.6347067356109619,0.17445726692676544,-0.13588839769363403
0.7404989004135132,0.6346620321273804,0.1746019572019577,-0.13557188212871552
0.7405731081962585,0.6345522999763489,0.1747407615184784,-0.13550126552581787
0.7408555150032043,0.634202241897583,0.17463402450084686,-0.13573423027992249
0.7410600185394287,0.6339443325996399,0.17444774508476257,-0.136061429977417
0.7412320375442505,0.6337193846702576,0.17443501949310303,-0.1361885815858841
0.7412892580032349,0.6335914731025696,0.17481733858585358,-0.13598231971263885
0.7411361336708069,0.6336357593536377,0.17541779577732086,-0.13583694398403168
0.7411279678344727,0.6336184740066528,0.17547504603862762,-0.13588847219944
0.7411264777183533,0.6336093544960022,0.17530643939971924,-0.13615617156028748
0.7411883473396301,0.633568525314331,0.17495132982730865,-0.13646559417247772
0.741243302822113,0.6335480809211731,0.17470480501651764,-0.13657814264297485
0.7413269877433777,0.6335234045982361,0.17458166182041168,-0.13639532029628754
0.7413845062255859,0.6335461735725403,0.174431711435318,-0.13616876304149628
0.7414229512214661,0.6336538195610046,0.17402498424053192,-0.13597889244556427
0.7414519190788269,0.6337590217590332,0.17351451516151428,-0.13598300516605377
0.7415592074394226,0.6337956190109253,0.17291496694087982,-0.1359911859035492
0.7416888475418091,0.6337421536445618,0.17254289984703064,-0.13600526750087738
0.7418011426925659,0.6336955428123474,0.17234587669372559,-0.1358606219291687
0.7421255707740784,0.6333836913108826,0.17223352193832397,-0.13568530976772308
0.7423959374427795,0.6330747604370117,0.17216677963733673,-0.13573232293128967
0.7428428530693054,0.6325159072875977,0.17202749848365784,-0.13606910407543182
0.7432335019111633,0.6320586800575256,0.17172382771968842,-0.13644365966320038
0.7436572909355164,0.6315871477127075,0.171340674161911,-0.13679909706115723
0.7439435124397278,0.6312397122383118,0.17118273675441742,-0.13704408705234528
0.744093120098114,0.631034791469574,0.17126697301864624,-0.13706955313682556
0.7442330718040466,0.6308187246322632,0.17144276201725006,-0.1370849460363388
0.7442595362663269,0.6307790875434875,0.17145483195781708,-0.13710917532444
0.7442708611488342,0.6307591199874878,0.17146573960781097,-0.13712510466575623
0.7442668676376343,0.6307221055030823,0.17134499549865723,-0.13746802508831024
0.7442302107810974,0.6307229995727539,0.17121011018753052,-0.1378299444913864
0.7441369891166687,0.6307640075683594,0.17120574414730072,-0.1381508708000183
0.7439935207366943,0.6309327483177185,0.17105452716350555,-0.13833962380886078
0.7439314126968384,0.6310656070709229,0.1706703156232834,-0.13854233920574188
0.7439342737197876,0.6311927437782288,0.17011338472366333,-0.1386331170797348
0.7439121603965759,0.6313415765762329,0.16967260837554932,-0.13861316442489624
0.7438474893569946,0.6315784454345703,0.16921848058700562,-0.13843661546707153
0.7436781525611877,0.6320485472679138,0.16856525838375092,-0.13799726963043213
0.7437491416931152,0.6321887373924255,0.16808998584747314,-0.1375517100095749
0.7438134551048279,0.6322166919708252,0.16810937225818634,-0.13705027103424072
0.7439292073249817,0.6320821046829224,0.16850163042545319,-0.13656094670295715
0.744072437286377,0.6318308115005493,0.16901849210262299,-0.1363040804862976
0.744415283203125,0.6313300728797913,0.16944456100463867,-0.13622359931468964
0.7447578310966492,0.6308331489562988,0.16976386308670044,-0.13625603914260864
0.7452096343040466,0.6301907896995544,0.17006473243236542,-0.13638313114643097
0.7456797361373901,0.6295118927955627,0.17046616971492767,-0.13644777238368988
0.7460549473762512,0.6289480328559875,0.1708802729845047,-0.13647881150245667
0.7463839650154114,0.6284624934196472,0.17123165726661682,-0.13647596538066864
0.7465730309486389,0.6281319856643677,0.17160502076148987,-0.13649457693099976
0.7467172741889954,0.6279098391532898,0.17180582880973816,-0.1364751011133194
0.7467400431632996,0.6278665065765381,0.17183449864387512,-0.1365133374929428
0.7468699812889099,0.6277774572372437,0.17157340049743652,-0.13654065132141113
0.7467777132987976,0.6279576420783997,0.17134438455104828,-0.1365044116973877
0.7464509010314941,0.628402590751648,0.171138733625412,-0.13650265336036682
0.7461073994636536,0.6289161443710327,0.17071284353733063,-0.1365489661693573
0.7456246018409729,0.6295866370201111,0.1702781617641449,-0.13663841784000397
0.7450031638145447,0.6304430365562439,0.16989323496818542,-0.13655905425548553
0.7443779110908508,0.6312348246574402,0.16980108618736267,-0.13642530143260956
0.7437081933021545,0.6320241093635559,0.16990908980369568,-0.1362888514995575
0.7430358529090881,0.6328092217445374,0.16999179124832153,-0.13620956242084503
0.7425136566162109,0.6333690285682678,0.17007309198379517,-0.13635371625423431
0.7421199679374695,0.6337544322013855,0.17012298107147217,-0.1366439163684845
0.7418736815452576,0.6340119242668152,0.1700296401977539,-0.1369025558233261
0.7418073415756226,0.6340208649635315,0.1701592355966568,-0.13705942034721375
0.741838812828064,0.6338721513748169,0.17059984803199768,-0.13702920079231262
0.7418773770332336,0.6336746215820312,0.17115828394889832,-0.13703766465187073
0.7421139478683472,0.6332692503929138,0.17147615551948547,-0.13723288476467133
0.7425172924995422,0.632723331451416,0.17152917385101318,-0.13750305771827698
0.7431240677833557,0.631964385509491,0.17144978046417236,-0.13781383633613586
0.7437789440155029,0.6312078833580017,0.17126968502998352,-0.13797186315059662
0.7444698810577393,0.6304336786270142,0.17109335958957672,-0.13800397515296936
0.7450917363166809,0.6297485828399658,0.1709388941526413,-0.1379673033952713
0.7455952763557434,0.6292575597763062,0.1705823391675949,-0.13792859017848969
0.7461492419242859,0.6287322044372559,0.17003083229064941,-0.1380094736814499
0.7467138171195984,0.6282139420509338,0.1694030612707138,-0.13808847963809967
0.7470746040344238,0.6279179453849792,0.16892291605472565,-0.13807137310504913
0.747409999370575,0.6276489496231079,0.1685376614332199,-0.13795047998428345
0.7477728128433228,0.6272544264793396,0.16836151480674744,-0.13799288868904114
0.7480279803276062,0.6268853545188904,0.16837909817695618,-0.13826583325862885
0.7482088804244995,0.6265162825584412,0.1685178279876709,-0.13878987729549408
0.7484145760536194,0.6260811686515808,0.1686379611492157,-0.13949640095233917
0.7484930157661438,0.6258113980293274,0.1687641441822052,-0.14013199508190155
0.7484017014503479,0.62571120262146,0.1690976768732071,-0.1406644880771637
0.7482371926307678,0.6257312893867493,0.1694776713848114,-0.14099185168743134
0.7477986216545105,0.6260941028594971,0.16984128952026367,-0.14127059280872345
0.7474009394645691,0.6264958381652832,0.1698436439037323,-0.1415908932685852
0.7470059394836426,0.6269253492355347,0.16969233751296997,-0.1419552117586136
0.7465872764587402,0.6274309158325195,0.16949662566184998,-0.14215783774852753
0.7462358474731445,0.6278859376907349,0.16929991543293,-0.14222855865955353
0.7457882165908813,0.6284481883049011,0.16918502748012543,-0.14223018288612366
0.7454086542129517,0.628971517086029,0.16896399855613708,-0.14216941595077515
0.7450199723243713,0.6294862627983093,0.16870030760765076,-0.14224137365818024
0.7446555495262146,0.6299986243247986,0.16836047172546387,-0.14228321611881256
0.7443016767501831,0.6304778456687927,0.16819047927856445,-0.14221376180648804
0.7439956068992615,0.6309230327606201,0.16811503469944,-0.14193002879619598
0.7438254952430725,0.6311750411987305,0.16815005242824554,-0.1416592299938202
0.7438060641288757,0.6312038898468018,0.16814199090003967,-0.14164216816425323
0.743807315826416,0.631198525428772,0.16814981400966644,-0.1416502594947815
0.744022011756897,0.6309054493904114,0.16827940940856934,-0.14167454838752747
0.7441413402557373,0.6306486129760742,0.16857899725437164,-0.14183484017848969
0.7443074584007263,0.6304008960723877,0.16873960196971893,-0.14187349379062653
0.7443830966949463,0.6302447319030762,0.16900327801704407,-0.141856849193573
0.7444411516189575,0.6301127076148987,0.16934046149253845,-0.1417362093925476
0.7445230484008789,0.6299253702163696,0.1696583330631256,-0.14175860583782196
0.7445093393325806,0.629911482334137,0.16972388327121735,-0.14181461930274963
0.7445343732833862,0.6298062205314636,0.16976307332515717,-0.14210344851016998
0.7445867657661438,0.6297811269760132,0.16950319707393646,-0.14224976301193237
0.7445018887519836,0.629890501499176,0.16913749277591705,-0.14264518022537231
0.7442931532859802,0.6303207874298096,0.16810612380504608,-0.14305146038532257
0.7443205714225769,0.6304181814193726,0.1661151498556137,-0.14479480683803558
0.7442240715026855,0.6307811141014099,0.16363686323165894,-0.14652201533317566
0.7444224953651428,0.6308872699737549,0.16098760068416595,-0.14798496663570404
0.7448798418045044,0.630749523639679,0.15834932029247284,-0.14911329746246338
0.7451257109642029,0.630859375,0.15628261864185333,-0.14959922432899475
0.7454521059989929,0.6308633089065552,0.15492086112499237,-0.1493726223707199
0.7454932332038879,0.631135106086731,0.15401053428649902,-0.14896027743816376
0.7452925443649292,0.6309548020362854,0.15464246273040771,-0.15007007122039795
0.7458046674728394,0.6297507286071777,0.15559224784374237,-0.15159370005130768
0.7477292418479919,0.6269077062606812,0.1555473357439041,-0.15392453968524933
0.7515395879745483,0.6212995648384094,0.15517280995845795,-0.15841859579086304
0.7540007829666138,0.6189315915107727,0.1505008488893509,-0.16048702597618103
0.7529587745666504,0.6206169128417969,0.1490025818347931,-0.16026879847049713
0.7480266094207764,0.6243932247161865,0.1620972901582718,-0.1559288501739502
0.7435795664787292,0.6273288130760193,0.17589159309864044,-0.15036644041538239
0.7426440119743347,0.628053605556488,0.17759941518306732,-0.1499565839767456
0.7427828311920166,0.6285321116447449,0.172420933842659,-0.15327151119709015
0.7431563138961792,0.6288898587226868,0.16817845404148102,-0.15470020473003387
0.7415341734886169,0.6302502751350403,0.1724044382572174,-0.1522776037454605
0.7399536967277527,0.6313738226890564,0.17707671225070953,-0.14993125200271606
0.7400309443473816,0.6316536068916321,0.17529119551181793,-0.15046906471252441
0.7407279014587402,0.631295919418335,0.1714235246181488,-0.15297582745552063
0.741441011428833,0.6307496428489685,0.16880233585834503,-0.15467998385429382
0.7420232892036438,0.6302835941314697,0.16732816398143768,-0.15538756549358368
0.741811990737915,0.6305719017982483,0.16694308817386627,-0.1556408852338791
0.7414803504943848,0.6307901740074158,0.1668170839548111,-0.15646997094154358
0.7413407564163208,0.6309598684310913,0.16563715040683746,-0.15769608318805695
0.7410182356834412,0.6312336325645447,0.1648000180721283,-0.15898819267749786
0.7405779361724854,0.6316372752189636,0.16421975195407867,-0.16003327071666718
0.7398141026496887,0.6323137879371643,0.16438636183738708,-0.16072241961956024
0.7392881512641907,0.6327563524246216,0.16432376205921173,-0.16146288812160492
0.7388424277305603,0.6330687999725342,0.16437885165214539,-0.1622202843427658
0.738308310508728,0.6334531307220459,0.16471122205257416,-0.16281342506408691
0.7376512289047241,0.6339209079742432,0.16512954235076904,-0.16354584693908691
0.7369484901428223,0.6345556974411011,0.1650368571281433,-0.16434398293495178
0.736493706703186,0.6349859237670898,0.16469915211200714,-0.16505831480026245
0.7361199259757996,0.6354455351829529,0.16410952806472778,-0.16554343700408936
0.7355824708938599,0.6361052393913269,0.16363470256328583,-0.16586840152740479
0.7352877259254456,0.6365770697593689,0.1627737581729889,-0.1662123054265976
0.7351372838020325,0.6368836164474487,0.16218048334121704,-0.16628308594226837
0.7351125478744507,0.636904239654541,0.1622026264667511,-0.16629211604595184
0.7350614070892334,0.6370459198951721,0.1615183800458908,-0.166640967130661
0.7349483370780945,0.6372748017311096,0.16049647331237793,-0.16725052893161774
0.7348449230194092,0.6371963024139404,0.1609814614057541,-0.16753731667995453
0.7350078821182251,0.6369572877883911,0.16103196144104004,-0.16768303513526917
0.7349019646644592,0.6369569897651672,0.16085617244243622,-0.16831594705581665
0.7345954179763794,0.6371834874153137,0.16050270199775696,-0.16913262009620667
0.7341330647468567,0.6374698877334595,0.16061121225357056,-0.16995584964752197
0.7336338758468628,0.6378187537193298,0.16074970364570618,-0.1706700325012207
0.7332289814949036,0.6381051540374756,0.16082419455051422,-0.17126835882663727
0.7327885627746582,0.6384222507476807,0.16077746450901031,-0.172013521194458
0.7322535514831543,0.6386817693710327,0.16138744354248047,-0.17275568842887878
0.7317090034484863,0.6391817331314087,0.16140787303447723,-0.17319421470165253
0.7313640713691711,0.6399587988853455,0.16011884808540344,-0.17297767102718353
0.7308140397071838,0.6411473155021667,0.1589108258485794,-0.17201261222362518
0.7304827570915222,0.6422238349914551,0.1570005714893341,-0.171156108379364
0.7304195761680603,0.6428423523902893,0.15527471899986267,-0.1706772744655609
0.7304753661155701,0.6430282592773438,0.15421852469444275,-0.1706961840391159
0.7305843234062195,0.6428695917129517,0.15349192917346954,-0.1714807152748108
0.7308831214904785,0.6422244906425476,0.1531963050365448,-0.1728833168745041
0.731414258480072,0.6412490606307983,0.15321172773838043,-0.1742386817932129
0.7318424582481384,0.6402967572212219,0.15406163036823273,-0.17519040405750275
0.731869101524353,0.6400846838951111,0.15464186668395996,-0.17534303665161133
0.7317503690719604,0.6400362849235535,0.15480530261993408,-0.1758701652288437
0.7316255569458008,0.6400607824325562,0.15520912408828735,-0.17594465613365173
0.7314532995223999,0.6401296257972717,0.15574295818805695,-0.1759379804134369
0.7312697172164917,0.6401246190071106,0.15626852214336395,-0.17625361680984497
0.7309101819992065,0.6403371095657349,0.15667904913425446,-0.1766081005334854
0.730696976184845,0.6403312683105469,0.15681298077106476,-0.1773909628391266
0.7305286526679993,0.6403953433036804,0.15681779384613037,-0.17784786224365234
0.7302136421203613,0.6406287550926208,0.156979039311409,-0.17815883457660675
0.7299262881278992,0.6409773826599121,0.1568116694688797,-0.17822949588298798
0.7295783758163452,0.6413626074790955,0.15683718025684357,-0.17824535071849823
0.7295883893966675,0.6415767669677734,0.15625502169132233,-0.17794522643089294
0.7296779751777649,0.641644299030304,0.1556406468153,-0.17787280678749084
0.7295950651168823,0.6419064998626709,0.15510886907577515,-0.17773136496543884
0.7294400334358215,0.6422665119171143,0.15451611578464508,-0.17758320271968842
0.7294327020645142,0.6422871947288513,0.15449412167072296,-0.17755767703056335
0.7294832468032837,0.6422489881515503,0.15477849543094635,-0.1772402971982956
0.7297461628913879,0.642092764377594,0.15486067533493042,-0.17665164172649384
0.7303029894828796,0.6414250135421753,0.15586566925048828,-0.1758902370929718
0.7303736805915833,0.6410490274429321,0.15782926976680756,-0.17521555721759796
0.7304839491844177,0.6407083868980408,0.15830007195472717,-0.17557643353939056
0.7304440140724182,0.6407164931297302,0.1578698307275772,-0.17609982192516327
0.730097234249115,0.6411792635917664,0.15743254125118256,-0.17624452710151672
0.7296532392501831,0.6417227983474731,0.1571919322013855,-0.1763199120759964
0.7290897369384766,0.6424249410629272,0.15710651874542236,-0.1761702001094818
0.7288884520530701,0.6426741480827332,0.15706901252269745,-0.17612804472446442
0.7286542057991028,0.6430544853210449,0.15713420510292053,-0.1756504327058792
0.728632926940918,0.6432282328605652,0.1572341024875641,-0.17501187324523926
0.7283908128738403,0.6437057852745056,0.15721215307712555,-0.1742820143699646
0.727977454662323,0.6445439457893372,0.15679757297039032,-0.173281729221344
0.7275418639183044,0.6455326676368713,0.15616893768310547,-0.17199315130710602
0.7271571755409241,0.6463598608970642,0.15569573640823364,-0.17093953490257263
0.7270817756652832,0.6467349529266357,0.15529857575893402,-0.17020104825496674
0.7270765900611877,0.6469776630401611,0.15467645227909088,-0.16986683011054993
0.7272149920463562,0.6468728184700012,0.15433745086193085,-0.16998210549354553
0.7271540760993958,0.6467241048812866,0.15494368970394135,-0.17025670409202576
0.7272801399230957,0.6464291214942932,0.15526703000068665,-0.17054399847984314
0.7273532152175903,0.6460508704185486,0.15582221746444702,-0.17115812003612518
0.7273982167243958,0.6457481384277344,0.15621839463710785,-0.17174726724624634
0.7273845076560974,0.6454606056213379,0.15678395330905914,-0.17236952483654022
0.7271936535835266,0.6453579664230347,0.15746378898620605,-0.1729385405778885
0.7269096970558167,0.6454925537109375,0.1577114313840866,-0.17340350151062012
0.7267822623252869,0.645466685295105,0.15780197083950043,-0.17395126819610596
0.7267722487449646,0.6452987194061279,0.15819919109344482,-0.17425455152988434
0.7266424894332886,0.6453520059585571,0.15832273662090302,-0.1744864284992218
0.7264801859855652,0.6454970240592957,0.158037930727005,-0.17488355934619904
0.7263848781585693,0.6456044912338257,0.1579059511423111,-0.17500202357769012
0.7263765335083008,0.6455839276313782,0.15796636044979095,-0.17505817115306854
0.726292610168457,0.6457040309906006,0.1576654314994812,-0.17523393034934998
0.7264838814735413,0.6456300616264343,0.15674926340579987,-0.17553548514842987
0.7266842722892761,0.6454742550849915,0.1560927927494049,-0.1758640557527542
0.7270527482032776,0.645083487033844,0.15557768940925598,-0.17623069882392883
0.7274667024612427,0.6446511149406433,0.15505251288414001,-0.17656712234020233
0.7277956008911133,0.6442569494247437,0.15497614443302155,-0.17671741545200348
0.7280264496803284,0.6439265012741089,0.15498512983322144,-0.17696306109428406
0.7283731698989868,0.6434834599494934,0.15466730296611786,-0.17742474377155304
0.7286339998245239,0.6432552933692932,0.15419398248195648,-0.1775934249162674
0.7287807464599609,0.6430473327636719,0.15414826571941376,-0.17778368294239044
0.728697657585144,0.6429431438446045,0.15469413995742798,-0.17802752554416656
0.7286799550056458,0.6428143382072449,0.15461918711662292,-0.17862850427627563
0.7284066677093506,0.6429563760757446,0.15477773547172546,-0.17909422516822815
0.7279845476150513,0.6432554125785828,0.15518508851528168,-0.179384246468544
0.7276356220245361,0.6435301303863525,0.15523555874824524,-0.1797705739736557
0.7272548675537109,0.643965482711792,0.1550036370754242,-0.17995160818099976
0.7270371913909912,0.6442935466766357,0.15476734936237335,-0.17986039817333221
0.726692795753479,0.6448146104812622,0.15464600920677185,-0.17948925495147705
0.7263637185096741,0.6452524065971375,0.15482626855373383,-0.1790924221277237
0.726048469543457,0.645710289478302,0.15478023886680603,-0.17875929176807404
0.7259604334831238,0.6459079384803772,0.15472397208213806,-0.17845135927200317
0.7257657051086426,0.646130383014679,0.15529745817184448,-0.1779394894838333
0.7257669568061829,0.6461027264595032,0.15569159388542175,-0.17769035696983337
0.7258947491645813,0.6459864974021912,0.15532904863357544,-0.17790751159191132
0.7259340882301331,0.6459041237831116,0.15517741441726685,-0.17817874252796173
0.7261818647384644,0.6456050872802734,0.15499171614646912,-0.17841416597366333
0.7262605428695679,0.6453498601913452,0.1554832011461258,-0.17858970165252686
0.7260577082633972,0.645369827747345,0.15613225102424622,-0.1787753701210022
0.7259699702262878,0.6454285383224487,0.15583793818950653,-0.17917689681053162
0.7257707118988037,0.6455050706863403,0.15623505413532257,-0.17936161160469055
0.7255649566650391,0.6456040143966675,0.15681150555610657,-0.1793355643749237
0.725315511226654,0.6457090973854065,0.15718185901641846,-0.17964184284210205
0.7250931262969971,0.6458463072776794,0.15724453330039978,-0.1799909919500351
0.7250727415084839,0.6459227204322815,0.1567537635564804,-0.18022681772708893
0.7248734831809998,0.6461252570152283,0.15676546096801758,-0.18029215931892395
0.7246170043945312,0.6465529203414917,0.15640202164649963,-0.18010538816452026
0.7246600985527039,0.6466983556747437,0.1557854861021042,-0.17994406819343567
0.7247419357299805,0.6467854976654053,0.15532808005809784,-0.1796969622373581
0.7247397303581238,0.6468954682350159,0.15523017942905426,-0.17939451336860657
0.7244811654090881,0.6473508477210999,0.15492944419384003,-0.17905496060848236
0.7243995666503906,0.6476007699966431,0.15435367822647095,-0.17897935211658478
0.7243969440460205,0.6476121544837952,0.15433770418167114,-0.17896200716495514
0.7244109511375427,0.6476148962974548,0.15429838001728058,-0.17892971634864807
0.7244611978530884,0.647566556930542,0.15426893532276154,-0.17892608046531677
0.7244799137115479,0.6475257277488708,0.1544608622789383,-0.17883317172527313
0.7242614030838013,0.6476143002510071,0.15501604974269867,-0.17891712486743927
0.7241214513778687,0.6476660370826721,0.15549229085445404,-0.17888286709785461
0.723893940448761,0.6477622389793396,0.15598633885383606,-0.1790250539779663
0.7234169840812683,0.6481531262397766,0.1564309000968933,-0.1791505664587021
0.7231665849685669,0.6483249664306641,0.15647581219673157,-0.1795002967119217
0.7228947877883911,0.6485010385513306,0.15698708593845367,-0.1795118898153305
0.7228940725326538,0.6484972834587097,0.15742585062980652,-0.17914420366287231
0.7227770090103149,0.6486182808876038,0.1576317697763443,-0.17899727821350098
0.72284996509552,0.6488366723060608,0.15660153329372406,-0.17881566286087036
0.7228251099586487,0.6490137577056885,0.15606436133384705,-0.17874276638031006
0.7228215336799622,0.6490200757980347,0.15606088936328888,-0.17873741686344147
0.7228490710258484,0.649008572101593,0.1560162901878357,-0.17870667576789856
0.722827136516571,0.6490212678909302,0.15604496002197266,-0.1787242442369461
0.7228041291236877,0.6490012407302856,0.1562141478061676,-0.17874254286289215
0.7225573658943176,0.6491207480430603,0.1565471738576889,-0.1790141761302948
0.7224434018135071,0.6490569710731506,0.15681083500385284,-0.17947407066822052
0.7221412658691406,0.6492351293563843,0.15679216384887695,-0.18006135523319244
0.7217888236045837,0.6494541764259338,0.15674087405204773,-0.18072786927223206
0.721499502658844,0.6496264338493347,0.1567029058933258,-0.18129611015319824
0.7212526202201843,0.6497369408607483,0.1568128764629364,-0.18178698420524597
0.7211426496505737,0.6496980786323547,0.15709266066551208,-0.18212012946605682
0.7211114168167114,0.6496405601501465,0.15711574256420135,-0.18242789804935455
0.7210865616798401,0.6496521234512329,0.1571533977985382,-0.18245302140712738
0.7212377190589905,0.6494591236114502,0.1571224480867386,-0.18256962299346924
0.7214550375938416,0.6492806673049927,0.1566956341266632,-0.18271256983280182
0.721764087677002,0.6490212678909302,0.1562352478504181,-0.18280728161334991
0.721962571144104,0.6489298939704895,0.1557600349187851,-0.1827540099620819
0.7221518754959106,0.6489691734313965,0.15506155788898468,-0.1824604868888855
0.7223537564277649,0.6490483283996582,0.1543131321668625,-0.18201304972171783
0.7227177619934082,0.6488696336746216,0.15384192764759064,-0.1816038191318512
0.7229446768760681,0.6487699151039124,0.15341708064079285,-0.18141651153564453
0.72319096326828,0.6486972570419312,0.15266062319278717,-0.18133245408535004
0.7233854532241821,0.6485133767127991,0.1525222510099411,-0.181331068277359
0.7233954071998596,0.648505687713623,0.1525130271911621,-0.18132692575454712
0.7233935594558716,0.6485089659690857,0.15251079201698303,-0.18132376670837402
0.7231970429420471,0.6486351490020752,0.15268151462078094,-0.18151284754276276
0.7232186794281006,0.6485340595245361,0.15276752412319183,-0.18171508610248566
0.7230501770973206,0.6485572457313538,0.15307798981666565,-0.18204157054424286
0.7229613065719604,0.6484829187393188,0.1535455882549286,-0.18226544559001923
0.722623348236084,0.64846271276474,0.15473681688308716,-0.18266986310482025
0.7222123742103577,0.6485556364059448,0.1557084172964096,-0.1831386834383011
0.7218948006629944,0.6485834717750549,0.15622806549072266,-0.18384850025177002
0.7216920256614685,0.6484505534172058,0.15702469646930695,-0.18443335592746735
0.7215259671211243,0.6483376622200012,0.15785528719425201,-0.18477098643779755
0.721321702003479,0.6485357880592346,0.15771259367465973,-0.18499509990215302
0.7210889458656311,0.6488940715789795,0.15742166340351105,-0.18489372730255127
0.7207071781158447,0.6494964957237244,0.1570817530155182,-0.18455590307712555
0.7206279635429382,0.6498284339904785,0.15634465217590332,-0.1843225657939911
0.7203702330589294,0.6502274870872498,0.15614941716194153,-0.18408845365047455
0.7201054096221924,0.6506458520889282,0.1560152769088745,-0.18375949561595917
0.7199164032936096,0.6509225964546204,0.15604820847511292,-0.18349142372608185
0.7198048233985901,0.651096761226654,0.15620583295822144,-0.18317705392837524
0.7197837829589844,0.6511496901512146,0.1561918705701828,-0.18308326601982117
0.7200155854225159,0.651005208492279,0.1558140367269516,-0.18300750851631165
0.7200495600700378,0.6509469151496887,0.1558440625667572,-0.18305590748786926
0.720044732093811,0.6509360074996948,0.15587638318538666,-0.18308626115322113
0.7202635407447815,0.6507440209388733,0.15554113686084747,-0.18319308757781982
0.7205532193183899,0.6504610776901245,0.15508711338043213,-0.18344324827194214
0.7206151485443115,0.6504621505737305,0.15473416447639465,-0.18349428474903107
0.7207637429237366,0.6504092812538147,0.15402273833751678,-0.18369655311107635
0.7207762002944946,0.6503927111625671,0.15402467548847198,-0.18370500206947327
0.7207462787628174,0.650339663028717,0.15438073873519897,-0.1837114691734314
0.720735490322113,0.6503474712371826,0.15439175069332123,-0.18371699750423431
0.7207086682319641,0.6503646373748779,0.15442287921905518,-0.18373456597328186
0.7206447124481201,0.6505120992660522,0.1539001166820526,-0.18390190601348877
0.7204977869987488,0.6506854295730591,0.1535559892654419,-0.1841522604227066
0.7204969525337219,0.6506836414337158,0.15351994335651398,-0.18419189751148224
0.7205756902694702,0.6505237817764282,0.1537409871816635,-0.18426431715488434
0.7205736041069031,0.6503773927688599,0.154206320643425,-0.1844000667333603
0.7204962372779846,0.6503810286521912,0.15450315177440643,-0.18444111943244934
0.720488965511322,0.6502540707588196,0.15501010417938232,-0.18449190258979797
0.7206311225891113,0.6500626802444458,0.15516573190689087,-0.18448053300380707
0.7209386825561523,0.6497007608413696,0.15501557290554047,-0.18467968702316284
0.7209331393241882,0.6497078537940979,0.15501517057418823,-0.184676393866539
0.7210288643836975,0.6495346426963806,0.15516012907028198,-0.18479043245315552
0.7211024165153503,0.6493670344352722,0.15529988706111908,-0.18497499823570251
0.7209843397140503,0.6494554877281189,0.15526777505874634,-0.18515191972255707
0.7208591103553772,0.6495712399482727,0.15500189363956451,-0.18545545637607574
0.7203635573387146,0.6500517129898071,0.15480895340442657,-0.18585830926895142
0.7203430533409119,0.650059700012207,0.1539834439754486,-0.18659420311450958
0.7210885882377625,0.6493957042694092,0.1516595482826233,-0.18792550265789032
0.7214184403419495,0.6489847898483276,0.15079297125339508,-0.18877406418323517
0.7210671305656433,0.6497682929039001,0.15070879459381104,-0.18748384714126587
0.720081627368927,0.6514590382575989,0.15025877952575684,-0.18575823307037354
0.7191953659057617,0.6532647609710693,0.14952276647090912,-0.18342864513397217
0.7178454995155334,0.6559740900993347,0.14926181733608246,-0.17921152710914612
0.7169653177261353,0.6576704382896423,0.15099339187145233,-0.17501778900623322
0.7160704731941223,0.6591493487358093,0.1534561812877655,-0.1709280163049698
0.7163370251655579,0.6594799160957336,0.1533242166042328,-0.16863930225372314
0.7164642810821533,0.6601101756095886,0.1523745059967041,-0.16647969186306
0.7165670990943909,0.6606661677360535,0.15314623713493347,-0.1630888432264328
0.7167274355888367,0.6610122323036194,0.1552322506904602,-0.15895795822143555
0.7170645594596863,0.6609386801719666,0.15833616256713867,-0.1546226143836975
0.7171739935874939,0.6608785390853882,0.16217200458049774,-0.15033705532550812
0.7170473337173462,0.6608781814575195,0.16615599393844604,-0.14654472470283508
0.7172039747238159,0.6604917049407959,0.16935837268829346,-0.1438293159008026
0.7177020907402039,0.6598456501960754,0.1708040088415146,-0.14259493350982666
0.7183388471603394,0.6590505838394165,0.17076615989208221,-0.14311039447784424
0.7186403274536133,0.6586018204689026,0.17002810537815094,-0.144534632563591
0.7186645269393921,0.6584861278533936,0.1693909764289856,-0.1456850916147232
0.718718409538269,0.6584414839744568,0.16864575445652008,-0.14648272097110748
0.7186717987060547,0.6585255265235901,0.16851495206356049,-0.14648424088954926
0.7183489203453064,0.6587671637535095,0.16941627860069275,-0.1459415704011917
0.7179829478263855,0.65903639793396,0.17040887475013733,-0.14537006616592407
0.7177156209945679,0.659303605556488,0.1705264151096344,-0.14534036815166473
0.7174534201622009,0.6595554947853088,0.17014117538928986,-0.14594250917434692
0.7168940901756287,0.6601549386978149,0.1699037253856659,-0.14625702798366547
0.7164030075073242,0.660696804523468,0.16964948177337646,-0.1465112864971161
0.7161146402359009,0.6610168218612671,0.16956184804439545,-0.146579310297966
0.71610426902771,0.6610203981399536,0.16958002746105194,-0.1465931236743927
0.7160736322402954,0.6610425114631653,0.1696091741323471,-0.14660853147506714
0.716139554977417,0.6609550714492798,0.1694425344467163,-0.14687348902225494
0.7162864804267883,0.6608133316040039,0.1691378951072693,-0.14714553952217102
0.7164140343666077,0.6606325507164001,0.16911543905735016,-0.1473618894815445
0.7164900898933411,0.6604254245758057,0.16953212022781372,-0.14744199812412262
0.7163925170898438,0.6603432297706604,0.17023813724517822,-0.14747099578380585
0.7163053750991821,0.660319447517395,0.17088276147842407,-0.14725521206855774
0.7161656022071838,0.6603888273239136,0.1712247133255005,-0.1472262144088745
0.7161484360694885,0.6603940725326538,0.17125575244426727,-0.14725005626678467
0.7161489725112915,0.6603606343269348,0.1710173785686493,-0.14767391979694366
0.7162805199623108,0.6601994633674622,0.17066575586795807,-0.1481625884771347
0.716095507144928,0.660354495048523,0.170657217502594,-0.1483757644891739
0.7160338163375854,0.6603952646255493,0.17082464694976807,-0.14829929172992706
0.7158284783363342,0.6605620384216309,0.1711129993200302,-0.14821544289588928
0.7158328294754028,0.660556972026825,0.17111267149448395,-0.14821724593639374
0.7157578468322754,0.6606990694999695,0.1708603799343109,-0.14823728799819946
0.7157416939735413,0.660821795463562,0.1703493595123291,-0.14835631847381592
0.7157902717590332,0.6608689427375793,0.16976532340049744,-0.148580864071846
0.7157589197158813,0.660995364189148,0.16941988468170166,-0.14856399595737457
0.7155255675315857,0.6611894965171814,0.16979992389678955,-0.14839017391204834
0.7153869271278381,0.6611936688423157,0.17042595148086548,-0.14832277595996857
0.7153570652008057,0.6612119674682617,0.17046086490154266,-0.148344486951828
0.7155036926269531,0.6609528064727783,0.17026114463806152,-0.14902077615261078
0.7157217264175415,0.6607077121734619,0.1695767492055893,-0.14983774721622467
0.7159217000007629,0.660468578338623,0.16896699368953705,-0.1506240963935852
0.7160698771476746,0.6603173017501831,0.16866472363471985,-0.15092144906520844
0.7160281538963318,0.6602489948272705,0.16899235546588898,-0.15105107426643372
0.7159706950187683,0.6601620316505432,0.16959033906459808,-0.15103386342525482
0.7158694863319397,0.6601108908653259,0.17009979486465454,-0.15116441249847412
0.7157676219940186,0.6600601077079773,0.17046129703521729,-0.151460662484169
0.7157518267631531,0.6600657105445862,0.17048804461956024,-0.15148065984249115
0.715761125087738,0.6600525379180908,0.17049235105514526,-0.1514897346496582
0.7156321406364441,0.6601802110671997,0.17046573758125305,-0.151572585105896
0.7155801057815552,0.6603614687919617,0.17008797824382782,-0.1514531522989273
0.7155560255050659,0.6605719327926636,0.16953760385513306,-0.15126559138298035
0.7155376076698303,0.6607688069343567,0.16895949840545654,-0.1511399745941162
0.7155806422233582,0.6608949303627014,0.16845440864562988,-0.1509484499692917
0.7155945897102356,0.6610304117202759,0.16813497245311737,-0.15064497292041779
0.7156909108161926,0.6609981060028076,0.16804051399230957,-0.15043430030345917
0.7156827449798584,0.6610094308853149,0.16803738474845886,-0.15042702853679657
0.7157812118530273,0.6608571410179138,0.16825246810913086,-0.1503874808549881
0.7157902717590332,0.6607139706611633,0.16868269443511963,-0.1504913866519928
0.7158579230308533,0.6604456901550293,0.16906951367855072,-0.15091265738010406
0.7160680294036865,0.6600297093391418,0.1692964881658554,-0.15148013830184937
0.7161308526992798,0.6598082184791565,0.16952238976955414,-0.15189489722251892
0.7160808444023132,0.6597070693969727,0.16990447044372559,-0.15214239060878754
0.7160568237304688,0.6595919132232666,0.1704014241695404,-0.1521991491317749
0.7158830761909485,0.6596347093582153,0.1708715856075287,-0.15230399370193481
0.7158873081207275,0.6596066951751709,0.17091748118400574,-0.15235388278961182
0.7158022522926331,0.6596996188163757,0.17086279392242432,-0.15241244435310364
0.7156702876091003,0.6599705219268799,0.17046085000038147,-0.15230940282344818
0.7156059741973877,0.660204291343689,0.16997703909873962,-0.1521388739347458
0.7155575752258301,0.660438597202301,0.16947506368160248,-0.15190927684307098
0.7153826951980591,0.6608103513717651,0.1690276861190796,-0.1516149789094925
0.7151554822921753,0.6612147092819214,0.16867783665657043,-0.15131308138370514
0.7149344086647034,0.6615875959396362,0.16845396161079407,-0.15097665786743164
0.714805543422699,0.6618041396141052,0.16832511126995087,-0.15078143775463104
0.7147952914237976,0.6618254780769348,0.1683064103126526,-0.15075694024562836
0.7147963047027588,0.6618194580078125,0.1683163195848465,-0.1507677584886551
0.7149946689605713,0.6615231037139893,0.1684943288564682,-0.15092884004116058
0.7150365114212036,0.6613091230392456,0.16893091797828674,-0.15118026733398438
0.7150687575340271,0.6610754728317261,0.16949301958084106,-0.15142035484313965
0.7150980830192566,0.6608496904373169,0.1699865758419037,-0.15171417593955994
0.7151126265525818,0.6607004404067993,0.17030863463878632,-0.15193377435207367
0.7151207327842712,0.6606861352920532,0.17031794786453247,-0.1519474983215332
0.715114176273346,0.6606534719467163,0.17054957151412964,-0.1518605649471283
0.7151064872741699,0.6606510281562805,0.17057286202907562,-0.15188102424144745
0.7151070237159729,0.6606253981590271,0.17062318325042725,-0.15193374454975128
0.7150333523750305,0.6607403755187988,0.1704375147819519,-0.15198905766010284
0.7151384949684143,0.6607313752174377,0.17002816498279572,-0.15199214220046997
0.7151704430580139,0.6608282327651978,0.16962897777557373,-0.15186657011508942
0.7151130437850952,0.6609677076339722,0.1694529950618744,-0.1517265886068344
0.7150219082832336,0.6611779928207397,0.16927364468574524,-0.15143895149230957
0.715007483959198,0.6612421870231628,0.16922269761562347,-0.15128366649150848
0.7150096893310547,0.6612421274185181,0.16921745240688324,-0.1512793004512787
0.7151508331298828,0.6611577272415161,0.16891640424728394,-0.1513178050518036
0.7151775360107422,0.6611425876617432,0.16888238489627838,-0.15129558742046356
0.7152588963508606,0.6610401272773743,0.16893739998340607,-0.1512974351644516
0.7154010534286499,0.6608532667160034,0.16914336383342743,-0.1512119024991989
0.7155570387840271,0.6605356335639954,0.1696416288614273,-0.15130285918712616
0.7156585454940796,0.6602588891983032,0.17014871537685394,-0.1514616310596466
0.7158118486404419,0.6599611043930054,0.17037944495677948,-0.15177497267723083
0.7159305810928345,0.6596895456314087,0.17055216431617737,-0.15220105648040771
0.7158232927322388,0.6596934199333191,0.1708105504512787,-0.1523992270231247
0.7158684730529785,0.6595968008041382,0.17104600369930267,-0.15234020352363586
0.7157705426216125,0.6596739292144775,0.17128705978393555,-0.15219633281230927
0.715646505355835,0.659817099571228,0.17131973803043365,-0.15212173759937286
0.7156192660331726,0.6598957777023315,0.17104977369308472,-0.15221276879310608
0.7155704498291016,0.6600123047828674,0.17070823907852173,-0.1523202359676361
0.7155567407608032,0.6601239442825317,0.17035478353500366,-0.15229704976081848
0.7155584692955017,0.6602092385292053,0.17004553973674774,-0.15226441621780396
0.7155697345733643,0.6601969003677368,0.17004328966140747,-0.1522676795721054
0.7155836224555969,0.6601805686950684,0.1700425148010254,-0.15227380394935608
0.7155957818031311,0.6601803302764893,0.1700136661529541,-0.15224982798099518
0.7155830264091492,0.6602032780647278,0.1699983775615692,-0.15222756564617157
0.7155744433403015,0.6602144241333008,0.1699965000152588,-0.15222136676311493
0.7155542969703674,0.6602388620376587,0.16999611258506775,-0.15221092104911804
0.71564781665802,0.6600751876831055,0.17019838094711304,-0.1522548645734787
0.7157232761383057,0.6598621606826782,0.17052242159843445,-0.1524607390165329
0.7158471345901489,0.6595951914787292,0.17078140377998352,-0.15274463593959808
0.7160229682922363,0.6592897176742554,0.17094457149505615,-0.1530555635690689
0.7161425948143005,0.6590771675109863,0.1710866391658783,-0.1532531976699829
0.7162075042724609,0.6589260101318359,0.17129479348659515,-0.1533675193786621
0.716073751449585,0.659015417098999,0.17155317962169647,-0.15331891179084778
0.7160685658454895,0.6590107679367065,0.1715751439332962,-0.15333913266658783
0.7159242630004883,0.6591503620147705,0.1715278923511505,-0.1534644365310669
0.7158365249633789,0.6592623591423035,0.17127911746501923,-0.15367084741592407
0.715654194355011,0.6594756245613098,0.1710876226425171,-0.15381841361522675
0.7153283357620239,0.6598922610282898,0.17095592617988586,-0.15369336307048798
0.7151173949241638,0.6602146029472351,0.17078033089637756,-0.1534859836101532
0.7148608565330505,0.6606128215789795,0.17047590017318726,-0.15330609679222107
0.7146779298782349,0.6609724164009094,0.16997630894184113,-0.15316368639469147
0.714580237865448,0.6612573266029358,0.16942141950130463,-0.15300357341766357
0.71452796459198,0.6614679098129272,0.1690155267715454,-0.1527870148420334
0.7146352529525757,0.6614920496940613,0.1687108427286148,-0.15251679718494415
0.7146319150924683,0.6614989638328552,0.16870489716529846,-0.152508944272995
0.7146416306495667,0.6614710688591003,0.1687937080860138,-0.15248604118824005
0.7146897912025452,0.6612747311592102,0.1691182553768158,-0.15275238454341888
0.7148153781890869,0.6609405875205994,0.16951735317707062,-0.15316805243492126
0.7150275707244873,0.6605139374732971,0.16987235844135284,-0.1536238193511963
0.7150989174842834,0.6602880954742432,0.17018118500709534,-0.15392056107521057
0.7151451110839844,0.660114049911499,0.170481875538826,-0.15411977469921112
0.7151324152946472,0.6600697040557861,0.1707354187965393,-0.15408822894096375
0.7148749828338623,0.6602832078933716,0.1710667908191681,-0.15400010347366333
0.7146010398864746,0.6605706214904785,0.17113015055656433,-0.15396861732006073
0.7143193483352661,0.6608991622924805,0.17091991007328033,-0.15409979224205017
0.7140682935714722,0.6612300872802734,0.17057450115680695,-0.15422669053077698
0.7139121294021606,0.6615357398986816,0.17019151151180267,-0.1540607511997223
0.7136914730072021,0.6619133949279785,0.17000719904899597,-0.1536642462015152
0.7135148048400879,0.6622344255447388,0.16989688575267792,-0.1532231867313385
0.7133604288101196,0.6625590920448303,0.16963575780391693,-0.15282699465751648
0.7132476568222046,0.6627993583679199,0.16932278871536255,-0.1526585817337036
0.7131510376930237,0.6630030274391174,0.16898635029792786,-0.15259820222854614
0.7131492495536804,0.6630192399024963,0.16895785927772522,-0.15256750583648682
0.7131549715995789,0.6630156636238098,0.1689516007900238,-0.15256376564502716
0.7132015824317932,0.6629059910774231,0.1690928339958191,-0.15266574919223785
0.713424563407898,0.662543773651123,0.16933755576610565,-0.15292476117610931
0.7136488556861877,0.662109911441803,0.16972745954990387,-0.15332482755184174
0.7138804197311401,0.6616611480712891,0.17011576890945435,-0.15375329554080963
0.714070737361908,0.6612547039985657,0.17046791315078735,-0.15422730147838593
0.7142016887664795,0.6610058546066284,0.17065273225307465,-0.15448224544525146
0.7142080068588257,0.66100013256073,0.1706494688987732,-0.15448196232318878
0.71400386095047,0.6611591577529907,0.1710352599620819,-0.15431825816631317
0.713901937007904,0.6612730622291565,0.17114780843257904,-0.15417668223381042
0.7137470245361328,0.6614840030670166,0.17093273997306824,-0.15422745048999786
0.7136507630348206,0.661666750907898,0.1705116629600525,-0.15435506403446198
0.71364825963974,0.6618093848228455,0.16999627649784088,-0.1543240249156952
0.7135230302810669,0.662078320980072,0.16967202723026276,-0.15410608053207397
0.7133986949920654,0.6623176336288452,0.16951604187488556,-0.15382492542266846
0.7132878303527832,0.6625049710273743,0.16941708326339722,-0.153641477227211
0.7132942080497742,0.6625096201896667,0.16939246654510498,-0.15361887216567993
0.7133152484893799,0.6625574827194214,0.1690329611301422,-0.15370985865592957
0.7134687900543213,0.6624346375465393,0.16873516142368317,-0.15385420620441437
0.7134450078010559,0.662473201751709,0.1687147617340088,-0.15382102131843567
0.7134894132614136,0.6623694896697998,0.16901540756225586,-0.153731569647789
0.7135487198829651,0.6622107028961182,0.1693974882364273,-0.15371987223625183
0.7137084603309631,0.661918044090271,0.16969814896583557,-0.15390712022781372
0.7138963937759399,0.6615911722183228,0.1698625534772873,-0.15425929427146912
0.7140408158302307,0.6613545417785645,0.16991500556468964,-0.15454716980457306
0.7140255570411682,0.6613019704818726,0.17007021605968475,-0.15467196702957153
0.7141023874282837,0.6611897349357605,0.1703006625175476,-0.1545436978340149
0.7140167951583862,0.6612236499786377,0.17070989310741425,-0.15434224903583527
0.7139413356781006,0.6612787842750549,0.17092622816562653,-0.15421588718891144
0.7139461040496826,0.6612605452537537,0.170951247215271,-0.15424446761608124
0.7138339281082153,0.6613835692405701,0.17072343826293945,-0.1544879674911499
0.7137312889099121,0.6616120934486389,0.17032869160175323,-0.15441927313804626
0.7136822938919067,0.6617405414581299,0.17021335661411285,-0.15422242879867554
0.7134255170822144,0.6621050238609314,0.17021575570106506,-0.1538432091474533
0.7132496237754822,0.6624017953872681,0.17005178332328796,-0.1535622775554657
0.7130883932113647,0.6627040505409241,0.169646218419075,-0.15345509350299835
0.7129687666893005,0.6629244685173035,0.1692017763853073,-0.15355002880096436
0.7130876779556274,0.662896990776062,0.16876159608364105,-0.15360109508037567
0.7131010293960571,0.6628959774971008,0.16873134672641754,-0.1535760909318924
0.7130652666091919,0.6629085540771484,0.1689806431531906,-0.15341399610042572
0.7130776643753052,0.6628219485282898,0.16937290132045746,-0.15329785645008087
0.7131903767585754,0.6625970602035522,0.1696910709142685,-0.15339405834674835
0.7132871747016907,0.6623247861862183,0.17001457512378693,-0.1537611335515976
0.7133451104164124,0.6620771288871765,0.17028839886188507,-0.15425530076026917
0.7132837772369385,0.6620520949363708,0.17040230333805084,-0.154520183801651
0.7133565545082092,0.6618778109550476,0.17056602239608765,-0.15474925935268402
0.7133400440216064,0.6618914604187012,0.17057828605175018,-0.15475378930568695
0.7132318615913391,0.6619651913642883,0.17083337903022766,-0.15465611219406128
0.713219404220581,0.6619609594345093,0.1708710640668869,-0.15468940138816833
0.7132155895233154,0.6620275974273682,0.1705835908651352,-0.1547396034002304
0.7131171822547913,0.6622291207313538,0.17019298672676086,-0.15476016700267792
0.712898850440979,0.6625465750694275,0.16992142796516418,-0.1547062247991562
0.7127689123153687,0.6628000736236572,0.16967058181762695,-0.15449455380439758
0.7127266526222229,0.6629821062088013,0.16935975849628448,-0.15424877405166626
0.7126710414886475,0.6631587743759155,0.16902336478233337,-0.1541156768798828
0.7126521468162537,0.6633270978927612,0.1685428023338318,-0.15400530397891998
0.7126511335372925,0.6634390354156494,0.16817638278007507,-0.1539279967546463
0.7126742005348206,0.6634316444396973,0.16813606023788452,-0.15389719605445862
0.7128917574882507,0.6632152795791626,0.16813932359218597,-0.15381823480129242
0.7131189703941345,0.6629630923271179,0.1681944578886032,-0.15379178524017334
0.7133661508560181,0.6625609993934631,0.16848625242710114,-0.154059037566185
0.7136431932449341,0.6620824933052063,0.1688641607761383,-0.1544186770915985
0.7138420939445496,0.6616643667221069,0.16931913793087006,-0.15479300916194916
0.7140322327613831,0.6612635254859924,0.16973479092121124,-0.15517322719097137
0.7140210866928101,0.6611762642860413,0.16995030641555786,-0.15536044538021088
0.7140160202980042,0.6611754894256592,0.1699638068675995,-0.1553720235824585
0.7140323519706726,0.6611419916152954,0.16999153792858124,-0.15540923178195953
0.7138692140579224,0.6613881587982178,0.16980907320976257,-0.15531064569950104
0.7136016488075256,0.6617525219917297,0.16960637271404266,-0.15520982444286346
0.7134476900100708,0.6619848012924194,0.16941191256046295,-0.15513932704925537
0.7130945324897766,0.6623281240463257,0.16930104792118073,-0.15541771054267883
0.7119400501251221,0.6636941432952881,0.16868709027767181,-0.15555086731910706
0.711581289768219,0.6644123196601868,0.1665346324443817,-0.15644396841526031
0.7124708890914917,0.6637431979179382,0.16289851069450378,-0.15904244780540466
0.7134189605712891,0.6627601981163025,0.16030865907669067,-0.16150352358818054
0.714231550693512,0.6619747281074524,0.15884964168071747,-0.1625717580318451
0.7139613032341003,0.6621835827827454,0.1591208130121231,-0.16264298558235168
0.7133249640464783,0.6628572344779968,0.16018922626972198,-0.16163946688175201
0.7135430574417114,0.6626889109611511,0.15904268622398376,-0.16249693930149078
0.7138910293579102,0.6622377038002014,0.1571446806192398,-0.1646406650543213
0.7145099639892578,0.6617151498794556,0.1551683247089386,-0.16592645645141602
0.7144502997398376,0.6618062257766724,0.15507814288139343,-0.16590432822704315
0.7138772010803223,0.6623010039329529,0.1572587937116623,-0.1643364131450653
0.7136033177375793,0.6625528931617737,0.15779896080493927,-0.16399231553077698
0.713954508304596,0.6621560454368591,0.1565534472465515,-0.16525612771511078
0.7149210572242737,0.6610601544380188,0.15467588603496552,-0.16722062230110168
0.7155494093894958,0.6604028940200806,0.15298180282115936,-0.16868221759796143
0.7153341770172119,0.6605063080787659,0.15392139554023743,-0.1683347076177597
0.7155349850654602,0.660034716129303,0.15601782500743866,-0.16739851236343384
0.715829074382782,0.6590614914894104,0.1570291668176651,-0.16902221739292145
0.7157101035118103,0.6590468883514404,0.15405058860778809,-0.17229226231575012
0.7155620455741882,0.6594783663749695,0.1503036469221115,-0.1745508462190628
0.7164358496665955,0.6586974263191223,0.14903239905834198,-0.17500491440296173
0.7162864208221436,0.6584219932556152,0.15145279467105865,-0.17457515001296997
0.7157823443412781,0.6583925485610962,0.15288668870925903,-0.17550086975097656
0.7159343957901001,0.6581573486328125,0.1503145843744278,-0.17796725034713745
0.714989423751831,0.6591011881828308,0.14945468306541443,-0.1789943426847458
0.7139790058135986,0.6598924398422241,0.1514749825000763,-0.17841362953186035
0.7129295468330383,0.660679817199707,0.15386070311069489,-0.17765289545059204
0.7120655179023743,0.6613463163375854,0.1549510955810547,-0.17769049108028412
0.7117437124252319,0.6614508628845215,0.1545368731021881,-0.1789471060037613
0.7116405367851257,0.6613692045211792,0.15360306203365326,-0.18045660853385925
0.7121294736862183,0.660914957523346,0.15213321149349213,-0.18143513798713684
0.7124291658401489,0.6607548594474792,0.1515105664730072,-0.18136227130889893
0.7124812602996826,0.6607628464698792,0.1519750952720642,-0.18073910474777222
0.7116782069206238,0.6618576645851135,0.1528046727180481,-0.17919094860553741
0.7115523815155029,0.662007212638855,0.15457291901111603,-0.1776144951581955
0.7114188075065613,0.6618717312812805,0.15624721348285675,-0.17718879878520966
0.7119396328926086,0.6615471243858337,0.15472662448883057,-0.17764340341091156
0.712271511554718,0.6613284349441528,0.1528596431016922,-0.17874017357826233
0.7119162082672119,0.6619012951850891,0.15233847498893738,-0.17848028242588043
0.7116866707801819,0.6622252464294434,0.15332962572574615,-0.1773415505886078
0.7109938263893127,0.6628682613372803,0.15514062345027924,-0.17613914608955383
0.7108954787254333,0.6629093885421753,0.15502043068408966,-0.17648711800575256
0.7109708786010742,0.6630415320396423,0.15303540229797363,-0.17741608619689941
0.7105570435523987,0.6637392640113831,0.15232279896736145,-0.17707784473896027
0.7096868753433228,0.6646890044212341,0.1538451462984085,-0.1756839156150818
0.7091713547706604,0.6651923060417175,0.15552593767642975,-0.1743754893541336
0.7089072465896606,0.6653419733047485,0.15613429248332977,-0.17433513700962067
0.7090095281600952,0.6651527881622314,0.15540461242198944,-0.17528997361660004
0.7088443040847778,0.6653740406036377,0.15428392589092255,-0.1761072278022766
0.7085316777229309,0.6656494736671448,0.15467919409275055,-0.17597751319408417
0.7082716226577759,0.6657885313034058,0.15576976537704468,-0.17553573846817017
0.7078481316566467,0.6661206483840942,0.15638157725334167,-0.17543983459472656
0.7074286937713623,0.6664324998855591,0.15658453106880188,-0.1757662296295166
0.7072363495826721,0.6665394306182861,0.15705466270446777,-0.17571547627449036
0.7072162628173828,0.6665394306182861,0.15719787776470184,-0.17566820979118347
0.707148015499115,0.6666895747184753,0.1570204645395279,-0.17553147673606873
0.7069715261459351,0.6669336557388306,0.15626396238803864,-0.17599011957645416
0.706591784954071,0.6675712466239929,0.15554046630859375,-0.17573793232440948
0.7063494920730591,0.6679813861846924,0.15577548742294312,-0.17494356632232666
0.7061899900436401,0.668145477771759,0.15641744434833527,-0.1743871122598648
0.7060419917106628,0.668461263179779,0.155661478638649,-0.1744527965784073
0.705854058265686,0.6688883900642395,0.15425056219100952,-0.17482870817184448
0.7058391571044922,0.6690753102302551,0.15373866260051727,-0.1746247559785843
0.7057003974914551,0.6692503094673157,0.15447530150413513,-0.17386312782764435
0.7057378888130188,0.6690968871116638,0.15545575320720673,-0.1734268069267273
0.7057609558105469,0.6690532565116882,0.15502288937568665,-0.17388816177845
0.7058240175247192,0.6690812706947327,0.15408571064472198,-0.17435678839683533
0.7058700919151306,0.669036865234375,0.15406544506549835,-0.17435866594314575
0.7056740522384644,0.6691476702690125,0.15447211265563965,-0.1743672490119934
0.7054351568222046,0.6693015098571777,0.1547088772058487,-0.1745334267616272
0.705295979976654,0.6692779660224915,0.15521416068077087,-0.17473772168159485
0.7051541209220886,0.6692308187484741,0.15562501549720764,-0.17512498795986176
0.7053629755973816,0.6690064072608948,0.1549837589263916,-0.17570875585079193
0.7049407958984375,0.6694518327713013,0.15486273169517517,-0.17581313848495483
0.7047081589698792,0.6696738004684448,0.15554149448871613,-0.17530065774917603
0.7048765420913696,0.669541597366333,0.15550647675991058,-0.17515982687473297
0.7049984931945801,0.669593870639801,0.15439346432685852,-0.17545370757579803
0.7050582766532898,0.6697478890419006,0.15333428978919983,-0.1755542755126953
0.7048349976539612,0.67010498046875,0.15340235829353333,-0.1750277280807495
0.7046812176704407,0.6703433990478516,0.1536177694797516,-0.1745443046092987
0.7047432661056519,0.670442521572113,0.15301524102687836,-0.1744425743818283
0.7048856616020203,0.6703882813453674,0.15231072902679443,-0.17469188570976257
0.7051162123680115,0.6701658964157104,0.1520407348871231,-0.17484967410564423
0.7052097916603088,0.6700473427772522,0.15197068452835083,-0.17498795688152313
0.7052857875823975,0.6698315739631653,0.152696892619133,-0.17487536370754242
0.705467939376831,0.6694185137748718,0.15359149873256683,-0.1749390810728073
0.7054386734962463,0.6693136692047119,0.15419431030750275,-0.1749279797077179
0.7054327726364136,0.6692501306533813,0.1544610857963562,-0.17495940625667572
0.7052933573722839,0.669255256652832,0.1550692617893219,-0.17496386170387268
0.7051280736923218,0.6693475246429443,0.15541361272335052,-0.1749715656042099
0.7050652503967285,0.669538676738739,0.15496326982975006,-0.17489288747310638
0.7049878835678101,0.6697622537612915,0.15440230071544647,-0.17484501004219055
0.7047268152236938,0.670179009437561,0.15429756045341492,-0.17439165711402893
0.7044387459754944,0.670632004737854,0.15456858277320862,-0.1735725998878479
0.7042803764343262,0.6709159016609192,0.1550813466310501,-0.17265824973583221
0.7044219970703125,0.6708990931510925,0.15486398339271545,-0.1723402738571167
0.7046749591827393,0.6708951592445374,0.15366686880588531,-0.17239320278167725
0.7047429084777832,0.6710284352302551,0.15303577482700348,-0.17215818166732788
0.704745352268219,0.6710368990898132,0.15383048355579376,-0.17140501737594604
0.7046875357627869,0.6711142063140869,0.15442517399787903,-0.17080466449260712
0.704882800579071,0.6709860563278198,0.15409402549266815,-0.1708013117313385
0.7050453424453735,0.6708630323410034,0.1537158191204071,-0.17095442116260529
0.7050493359565735,0.6708653569221497,0.1537017822265625,-0.1709415316581726
0.7049590945243835,0.6709260940551758,0.15411674976348877,-0.17070160806179047
0.7049134969711304,0.6708998680114746,0.15452086925506592,-0.17062726616859436
0.7049182057380676,0.6708874106407166,0.15453459322452545,-0.17064419388771057
0.7049562335014343,0.6708511710166931,0.1542559117078781,-0.17088167369365692
0.7049742937088013,0.6708254814147949,0.15403565764427185,-0.17110688984394073
0.704800546169281,0.6709571480751038,0.1543067842721939,-0.17106236517429352
0.7047951817512512,0.6708824634552002,0.1546330451965332,-0.17108197510242462
0.704797625541687,0.6708682775497437,0.15465590357780457,-0.1711074411869049
0.704868495464325,0.6708452701568604,0.15412749350070953,-0.17138166725635529
0.7049386501312256,0.6708685755729675,0.153441920876503,-0.17161759734153748
0.7047897577285767,0.6711392402648926,0.15319319069385529,-0.17139269411563873
0.7047944068908691,0.6711301803588867,0.15320031344890594,-0.17140258848667145
0.7047509551048279,0.6711769104003906,0.15320932865142822,-0.17139044404029846
0.7050034999847412,0.6710213422775269,0.1526651531457901,-0.1714460700750351
0.7050341963768005,0.6709949374198914,0.15264588594436646,-0.17144091427326202
0.7050378918647766,0.6709917783737183,0.15264324843883514,-0.171439990401268
0.7050403356552124,0.6710048317909241,0.15261158347129822,-0.17140762507915497
0.7050837278366089,0.6708993315696716,0.15308012068271637,-0.17122414708137512
0.7051491737365723,0.6706917881965637,0.15380354225635529,-0.17111898958683014
0.7051522135734558,0.6706801652908325,0.15381966531276703,-0.17113758623600006
0.7051535844802856,0.6706786155700684,0.1538194864988327,-0.17113809287548065
0.7052798867225647,0.670508623123169,0.15405412018299103,-0.17107287049293518
0.7053090929985046,0.6704705953598022,0.15406113862991333,-0.17109493911266327
0.7053098678588867,0.6705271005630493,0.15381255745887756,-0.17109397053718567
0.7053554654121399,0.670601487159729,0.15345972776412964,-0.17093132436275482
0.7053825259208679,0.6707470417022705,0.15298984944820404,-0.1706697791814804
0.7054687738418579,0.6708028316497803,0.15243443846702576,-0.17059078812599182
0.7054900527000427,0.6709714531898499,0.15180587768554688,-0.17040029168128967
0.7055139541625977,0.6710491180419922,0.15158751606941223,-0.17018939554691315
0.7054924964904785,0.6711651682853699,0.15154512226581573,-0.16985845565795898
0.705522358417511,0.6712495684623718,0.15117312967777252,-0.16973213851451874
0.7057009339332581,0.6711723804473877,0.1508711278438568,-0.16956351697444916
0.705888032913208,0.6709343791007996,0.1509167104959488,-0.169685959815979
0.7060950398445129,0.670701801776886,0.15094372630119324,-0.16972005367279053
0.7063810229301453,0.6702985167503357,0.1511867642402649,-0.16990713775157928
0.7066274881362915,0.669992208480835,0.15128934383392334,-0.16999927163124084
0.7066535353660583,0.669971764087677,0.15126818418502808,-0.16998983919620514
0.7067888975143433,0.669734537601471,0.15155582129955292,-0.1701057106256485
0.7068248987197876,0.6696168780326843,0.15184542536735535,-0.1701611876487732
0.7068201899528503,0.6696109175682068,0.15186862647533417,-0.17018333077430725
0.7068108320236206,0.6696106791496277,0.1518915742635727,-0.17020286619663239
0.7067953944206238,0.6696322560310364,0.15188471972942352,-0.1701880246400833
0.7067822217941284,0.6696382761001587,0.15190421044826508,-0.17020201683044434
0.7067678570747375,0.6696435213088989,0.15192779898643494,-0.1702197790145874
0.7066930532455444,0.6697790622711182,0.1516294628381729,-0.1702631115913391
0.7066037058830261,0.6700040102005005,0.15107902884483337,-0.1702382117509842
0.7064827680587769,0.6702657341957092,0.15070505440235138,-0.1700410693883896
0.7065362334251404,0.670309841632843,0.15049637854099274,-0.16983012855052948
0.7066646218299866,0.6703117489814758,0.15007111430168152,-0.16966432332992554
0.7066351175308228,0.6703457832336426,0.15007281303405762,-0.16965162754058838
0.7066550850868225,0.6702975630760193,0.15038883686065674,-0.16947899758815765
0.7066415548324585,0.6703057289123535,0.15051572024822235,-0.16939011216163635
0.7066633105278015,0.67026686668396,0.15054263174533844,-0.16942912340164185
0.7067868113517761,0.6700630784034729,0.1505037099123001,-0.16975456476211548
0.7069004774093628,0.6698719263076782,0.15069866180419922,-0.16986249387264252
0.706727147102356,0.6699002385139465,0.1513555645942688,-0.16988854110240936
0.7064739465713501,0.6700527667999268,0.15199211239814758,-0.16977128386497498
0.7061557173728943,0.6703859567642212,0.15197372436523438,-0.16979637742042542
0.7057967185974121,0.6708808541297913,0.15155979990959167,-0.16970427334308624
0.7055771946907043,0.6713460683822632,0.15088556706905365,-0.16937799751758575
0.7053581476211548,0.671850860118866,0.15018866956233978,-0.16890758275985718
0.7053510546684265,0.6721394658088684,0.14945170283317566,-0.16844210028648376
0.7053243517875671,0.6723346710205078,0.1489800065755844,-0.16819268465042114
0.7054281830787659,0.6723021268844604,0.14862537384033203,-0.16820067167282104
0.705562949180603,0.6721993684768677,0.14836817979812622,-0.16827340424060822
0.7058040499687195,0.6719220280647278,0.14822179079055786,-0.16849902272224426
0.7061607837677002,0.671433687210083,0.14839352667331696,-0.16879937052726746
0.7064853310585022,0.6710013747215271,0.14846453070640564,-0.16909754276275635
0.7067066431045532,0.6706053018569946,0.14873984456062317,-0.16950134932994843
0.706923246383667,0.6701650023460388,0.149253711104393,-0.16988793015480042
0.7072333693504333,0.6696227192878723,0.14942148327827454,-0.17058680951595306
0.7073880434036255,0.6693808436393738,0.14915697276592255,-0.1711251139640808
0.7076641321182251,0.6690341830253601,0.14926265180110931,-0.17124676704406738
0.7077454328536987,0.6689576506614685,0.14968428015708923,-0.1708412766456604
0.7077326774597168,0.6690660715103149,0.14972755312919617,-0.17043107748031616
0.707801878452301,0.6691462397575378,0.1492154449224472,-0.17027847468852997
0.7078513503074646,0.6693074107170105,0.14846599102020264,-0.17009371519088745
0.7076531052589417,0.6696740984916687,0.1479843109846115,-0.1698952168226242
0.707480788230896,0.6699948906898499,0.14752285182476044,-0.16974936425685883
0.7072433829307556,0.6702450513839722,0.1474708467721939,-0.16979634761810303
0.7069531083106995,0.670512855052948,0.14758439362049103,-0.16984917223453522
0.7066336870193481,0.670708179473877,0.14808791875839233,-0.16996854543685913
0.7064543962478638,0.6707459092140198,0.14861010015010834,-0.17010921239852905
0.7064271569252014,0.6706352829933167,0.14873984456062317,-0.1705447882413864
0.7063632011413574,0.6706551909446716,0.14875929057598114,-0.1707146018743515
0.7062290906906128,0.6707286238670349,0.1491990089416504,-0.1705971658229828
0.7062268257141113,0.6706141829490662,0.1496322900056839,-0.1706770658493042
0.7064187526702881,0.6703704595565796,0.14955638349056244,-0.17090633511543274
0.7068043351173401,0.6700159907341003,0.14900504052639008,-0.17118389904499054
0.7068156599998474,0.6700183153152466,0.14897289872169495,-0.1711556762456894
0.7069163918495178,0.6699292063713074,0.1491881161928177,-0.17090101540088654
0.706902801990509,0.6699385046958923,0.14920173585414886,-0.17090867459774017
0.7070031762123108,0.669836163520813,0.14888328313827515,-0.17117151618003845
0.7067692279815674,0.6700730323791504,0.14872203767299652,-0.17135119438171387
0.7066475749015808,0.6701272130012512,0.14893841743469238,-0.17145289480686188
0.7066250443458557,0.670136034488678,0.14897461235523224,-0.17147989571094513
0.7063437104225159,0.6703786849975586,0.14899492263793945,-0.17167289555072784
0.7061154842376709,0.6706104278564453,0.14880114793777466,-0.17187482118606567
0.7059541344642639,0.6708448529243469,0.14847537875175476,-0.17190438508987427
0.7057762742042542,0.6711110472679138,0.14829573035240173,-0.17175084352493286
0.7055573463439941,0.6714498996734619,0.1480327695608139,-0.17155270278453827
0.705559492111206,0.6716120839118958,0.14731347560882568,-0.1715281903743744
0.705635130405426,0.6716502904891968,0.14682716131210327,-0.17148420214653015
0.7056284546852112,0.6716607809066772,0.1468217372894287,-0.17147523164749146
0.7058107256889343,0.6714705228805542,0.1468529850244522,-0.17144353687763214
0.7062171101570129,0.6709405183792114,0.14692144095897675,-0.171785369515419
0.7064698934555054,0.6704825162887573,0.14692066609859467,-0.17253372073173523
0.7070840001106262,0.6697283983230591,0.14681003987789154,-0.17303991317749023
0.7072657942771912,0.6693860292434692,0.14717933535575867,-0.1733081191778183
0.7071963548660278,0.6692778468132019,0.14782574772834778,-0.17345961928367615
0.7070908546447754,0.669273853302002,0.14826460182666779,-0.17353063821792603
0.7070381045341492,0.66916823387146,0.14874032139778137,-0.173744797706604
0.7067563533782959,0.669317901134491,0.14905042946338654,-0.17404913902282715
0.7065987586975098,0.6695746779441833,0.14873240888118744,-0.17397354543209076
0.7065878510475159,0.6695777177810669,0.14875219762325287,-0.1739889681339264
0.7061544060707092,0.6700804233551025,0.148797869682312,-0.17377406358718872
0.706077516078949,0.6703128218650818,0.14813312888145447,-0.17375774681568146
0.7062231302261353,0.6703307628631592,0.1472274214029312,-0.17386670410633087
0.7062310576438904,0.670527458190918,0.14641468226909637,-0.17376267910003662
0.7061706185340881,0.6707800626754761,0.14597484469413757,-0.17340296506881714
0.705973207950592,0.671140730381012,0.14579804241657257,-0.1729593276977539
0.7058531045913696,0.6714170575141907,0.14585083723068237,-0.172331765294075
0.7060068845748901,0.6713416576385498,0.14597420394420624,-0.17189034819602966
0.7061887383460999,0.6711692214012146,0.1457049697637558,-0.17204497754573822
0.7064657807350159,0.6709222793579102,0.14510129392147064,-0.17238064110279083
0.7064858078956604,0.6709079146385193,0.14508236944675446,-0.17237050831317902
0.7065809369087219,0.6707053780555725,0.14559125900268555,-0.17233969271183014
0.7067121267318726,0.6705403923988342,0.14561288058757782,-0.17242580652236938
0.7066646218299866,0.670417845249176,0.14596420526504517,-0.17279893159866333
0.7065051794052124,0.670370876789093,0.14671380817890167,-0.17299838364124298
0.7063167691230774,0.670430600643158,0.14716307818889618,-0.17315471172332764
0.7062948346138,0.6704360842704773,0.14720463752746582,-0.17318762838840485
0.7062997221946716,0.6704226732254028,0.14722010493278503,-0.17320629954338074
0.7061527967453003,0.6706461906433105,0.14683714509010315,-0.17326553165912628
0.7058892846107483,0.6709986925125122,0.14665944874286652,-0.17312492430210114
0.7057241797447205,0.6713470816612244,0.14658716320991516,-0.17250749468803406
0.705572783946991,0.6716398596763611,0.1465044617652893,-0.17205648124217987
0.7056322693824768,0.671734094619751,0.1458708941936493,-0.17198313772678375
0.7057748436927795,0.6717002391815186,0.1452428698539734,-0.17206141352653503
0.7057934403419495,0.6716915369033813,0.14521603286266327,-0.17204219102859497
0.7057781219482422,0.6717591285705566,0.14574690163135529,-0.17139114439487457
0.7058576941490173,0.6715762615203857,0.14650370180606842,-0.1711346060037613
0.7059621214866638,0.6713262796401978,0.1465718299150467,-0.17162559926509857
0.7061960101127625,0.6711012721061707,0.1457136869430542,-0.1722722053527832
0.706104576587677,0.6711013913154602,0.14595839381217957,-0.17243953049182892
0.7060664892196655,0.6710512042045593,0.14684920012950897,-0.17203402519226074
0.7062435150146484,0.6707580089569092,0.14714644849300385,-0.17219695448875427
0.7063605785369873,0.6704954504966736,0.14713981747627258,-0.17274457216262817
0.70638507604599,0.6703284382820129,0.1471715271472931,-0.17326417565345764
0.7062737345695496,0.6703864932060242,0.14742283523082733,-0.17327986657619476
0.7061727046966553,0.6704160571098328,0.14822877943515778,-0.1728898286819458
0.7061810493469238,0.6703868508338928,0.14861153066158295,-0.17264026403427124
0.7063180804252625,0.6703567504882812,0.1481001377105713,-0.17263570427894592
0.7063920497894287,0.6705048680305481,0.14784720540046692,-0.17197294533252716
0.7069858908653259,0.6700465679168701,0.14897461235523224,-0.17033834755420685
0.7077468037605286,0.6693506836891174,0.15124669671058655,-0.16789469122886658
0.708530604839325,0.6688470840454102,0.1527279019355774,-0.16523383557796478
0.7093175649642944,0.6685760617256165,0.15349946916103363,-0.1622113436460495
0.7099082469940186,0.6683996915817261,0.1552145779132843,-0.1586841493844986
0.7103372812271118,0.6681569218635559,0.15784767270088196,-0.1551498919725418
0.7104694843292236,0.6680379509925842,0.16079218685626984,-0.15200138092041016
0.7101346850395203,0.6681214570999146,0.16390345990657806,-0.1498604118824005
0.7097431421279907,0.6681066155433655,0.16628079116344452,-0.1491607427597046
0.7093425393104553,0.6680561900138855,0.16764897108078003,-0.149759903550148
0.7093064188957214,0.6676777005195618,0.16804154217243195,-0.1511719822883606
0.7094374299049377,0.6672369837760925,0.167816624045372,-0.1527450680732727
0.709765613079071,0.6666417121887207,0.1677219271659851,-0.1539193093776703
0.710388720035553,0.6659016609191895,0.16750305891036987,-0.15448546409606934
0.7111291885375977,0.6651272773742676,0.16692031919956207,-0.15504390001296997
0.7121843695640564,0.6642035841941833,0.1654321551322937,-0.15575341880321503
0.7134276032447815,0.6631849408149719,0.1632503718137741,-0.15670394897460938
0.7142958641052246,0.6625489592552185,0.16143465042114258,-0.157318577170372
0.7149521112442017,0.6620810031890869,0.16051232814788818,-0.15725183486938477
0.7154529094696045,0.6616621613502502,0.16050206124782562,-0.1567467451095581
0.715786337852478,0.6613067984580994,0.16095657646656036,-0.15625743567943573
0.7160500288009644,0.6609793305397034,0.16120553016662598,-0.1561780869960785
0.7161540389060974,0.6609017252922058,0.16074609756469727,-0.15650241076946259
0.7162219285964966,0.6609496474266052,0.1597561240196228,-0.15700237452983856
0.7162446975708008,0.6610679030418396,0.15895913541316986,-0.15720932185649872
0.7160874605178833,0.6612735390663147,0.15899130702018738,-0.15702863037586212
0.7159077525138855,0.6613715291023254,0.15969839692115784,-0.15671753883361816
0.715634822845459,0.6614952087402344,0.16050207614898682,-0.15662097930908203
0.7154156565666199,0.6615200638771057,0.16102789342403412,-0.15697695314884186
0.7152304649353027,0.6615462899208069,0.16117405891418457,-0.15755940973758698
0.715233564376831,0.6614143252372742,0.16124387085437775,-0.1580262929201126
0.7152266502380371,0.6612845659255981,0.1616387963294983,-0.15819776058197021
0.7151268720626831,0.6612000465393066,0.16228710114955902,-0.1583377867937088
0.7151260375976562,0.6611812710762024,0.16232752799987793,-0.15837924182415009
0.7151134014129639,0.6611787676811218,0.1623632311820984,-0.15841001272201538
0.715190052986145,0.6611412763595581,0.1620205193758011,-0.15857109427452087
0.7152137756347656,0.661243200302124,0.1615082323551178,-0.15856173634529114
0.715255856513977,0.6613840460777283,0.16094622015953064,-0.1583559364080429
0.7152109742164612,0.6615803837776184,0.1605852097272873,-0.15810470283031464
0.7152342796325684,0.6617152690887451,0.16030892729759216,-0.1577148735523224
0.7152115106582642,0.6618605852127075,0.16002510488033295,-0.1574963629245758
0.7150721549987793,0.6621159911155701,0.1596892923116684,-0.1573963165283203
0.7150760889053345,0.6621612906455994,0.15941371023654938,-0.15746726095676422
0.7150902152061462,0.6621545553207397,0.15939311683177948,-0.1574528068304062
0.7151986360549927,0.6619278788566589,0.1597067415714264,-0.1575944721698761
0.7152183651924133,0.6617312431335449,0.16023364663124084,-0.15779606997966766
0.7153074145317078,0.6614242196083069,0.16072911024093628,-0.15817555785179138
0.7152402400970459,0.6613411903381348,0.1612018644809723,-0.1583457887172699
0.7152245044708252,0.6612071990966797,0.16153915226459503,-0.1586318463087082
0.7151485085487366,0.66118323802948,0.16190263628959656,-0.15870380401611328
0.7151440382003784,0.6611729860305786,0.16193439066410065,-0.1587345004081726
0.7152634263038635,0.6609557867050171,0.16186712682247162,-0.15916921198368073
0.7153113484382629,0.6608819365501404,0.16151626408100128,-0.1596166044473648
0.7152490615844727,0.6610063314437866,0.1610366851091385,-0.15986484289169312
0.7151411771774292,0.6611943244934082,0.16076678037643433,-0.1598416417837143
0.714843213558197,0.6616477370262146,0.16068251430988312,-0.15938232839107513
0.7145094275474548,0.6621633768081665,0.16059915721416473,-0.15882070362567902
0.7141784429550171,0.6626818180084229,0.16039985418319702,-0.15834718942642212
0.7138081192970276,0.6631991863250732,0.16018307209014893,-0.15807069838047028
0.7136570811271667,0.6635029911994934,0.15981359779834747,-0.1578511893749237
0.7136624455451965,0.6636002063751221,0.15952935814857483,-0.1577056497335434
0.7136174440383911,0.663643479347229,0.1595507115125656,-0.1577058732509613
0.7137142419815063,0.6635056734085083,0.1597878336906433,-0.15760788321495056
0.7138800024986267,0.6632311344146729,0.16019891202449799,-0.15759539604187012
0.7141134738922119,0.6628344655036926,0.16037440299987793,-0.15802693367004395
0.7143814563751221,0.6624933481216431,0.15982981026172638,-0.1587960124015808
0.7147326469421387,0.6620893478393555,0.1590624451637268,-0.1596689671278
0.7148836851119995,0.6618161797523499,0.15888942778110504,-0.16029663383960724
0.7147864699363708,0.6616916060447693,0.159674271941185,-0.1604641228914261
0.714487612247467,0.6617307066917419,0.1609419733285904,-0.16036728024482727
0.7142000794410706,0.6617368459701538,0.162173792719841,-0.1603821963071823
0.7139416337013245,0.6618108749389648,0.1626412719488144,-0.16075284779071808
0.7139059901237488,0.6617882251739502,0.16222594678401947,-0.16142337024211884
0.713842511177063,0.6619378924369812,0.16140691936016083,-0.1619108021259308
0.7136145830154419,0.6622526049613953,0.16092388331890106,-0.16210930049419403
0.7133693099021912,0.6626298427581787,0.16077694296836853,-0.16179269552230835
0.713098406791687,0.6630083322525024,0.16094069182872772,-0.16127219796180725
0.7127877473831177,0.6634191274642944,0.16132216155529022,-0.16057352721691132
0.7125019431114197,0.663705587387085,0.16199186444282532,-0.15998312830924988
0.7122778296470642,0.6639389991760254,0.16245386004447937,-0.15954361855983734
0.7122801542282104,0.663943350315094,0.16243962943553925,-0.1595298796892166
0.7124425768852234,0.6638141870498657,0.1621948629617691,-0.15959025919437408
0.712614119052887,0.6636337041854858,0.16188818216323853,-0.15988636016845703
0.7127749919891357,0.6633807420730591,0.16183923184871674,-0.16026808321475983
0.7129155993461609,0.6631374955177307,0.16193647682666779,-0.16055086255073547
0.7129549980163574,0.6629688739776611,0.16218505799770355,-0.16082125902175903
0.7130062580108643,0.6628613471984863,0.1624143421649933,-0.16080591082572937
0.7128886580467224,0.6628806591033936,0.1628785878419876,-0.16077831387519836
0.7128040790557861,0.662876307964325,0.16318675875663757,-0.16085904836654663
0.7126561999320984,0.6629281640052795,0.1632469743490219,-0.16123810410499573
0.7125135064125061,0.6630305647850037,0.16299664974212646,-0.1617008000612259
0.7125123739242554,0.6630876660346985,0.16250726580619812,-0.1619640439748764
0.7123900651931763,0.663321316242218,0.16217081248760223,-0.1618826687335968
0.7122229933738708,0.6636381149291992,0.1619996726512909,-0.16148988902568817
0.7119480967521667,0.6640382409095764,0.16187413036823273,-0.16118304431438446
0.7116765975952148,0.6644283533096313,0.16165153682231903,-0.1609978824853897
0.7114843130111694,0.6647894382476807,0.16121718287467957,-0.16079196333885193
0.7114129662513733,0.6650258302688599,0.16065533459186554,-0.16069313883781433
0.7114408016204834,0.6651581525802612,0.16013526916503906,-0.16054044663906097
0.7114180326461792,0.6652008295059204,0.16010382771492004,-0.1604963093996048
0.7115297317504883,0.6650741100311279,0.16031624376773834,-0.1603141874074936
0.7116232514381409,0.6648755073547363,0.16086243093013763,-0.16017590463161469
0.7117894887924194,0.6645087599754333,0.161403626203537,-0.16041430830955505
0.7120875716209412,0.6640041470527649,0.1616811454296112,-0.1609010100364685
0.7122307419776917,0.6637054681777954,0.16184215247631073,-0.16133645176887512
0.7124060988426208,0.6634166240692139,0.16211174428462982,-0.16148003935813904
0.7123573422431946,0.6633028984069824,0.1627528816461563,-0.1615176796913147
0.712250292301178,0.6633092164993286,0.16311368346214294,-0.16159997880458832
0.7121508121490479,0.663381040096283,0.1630035787820816,-0.16185356676578522
0.7120352983474731,0.6635846495628357,0.16257454454898834,-0.16195881366729736
0.7120738625526428,0.6636377573013306,0.16222912073135376,-0.16191798448562622
0.7120618224143982,0.6638031005859375,0.16198144853115082,-0.16154083609580994
0.7119712829589844,0.6640763878822327,0.16173942387104034,-0.16105850040912628
0.7118718028068542,0.6643288731575012,0.16142740845680237,-0.16076956689357758
0.711870014667511,0.6645533442497253,0.1607733517885208,-0.16050545871257782
0.7119392156600952,0.6647030711174011,0.1600130945444107,-0.1603383868932724
0.7120466828346252,0.6647427678108215,0.1595349907875061,-0.16017292439937592
0.7120957374572754,0.6647804975509644,0.15937243402004242,-0.1599600464105606
0.7124180793762207,0.6645278334617615,0.15916717052459717,-0.15977877378463745
0.7125973105430603,0.6643246412277222,0.15923218429088593,-0.1597595363855362
0.712803304195404,0.6640163660049438,0.15947017073631287,-0.15988481044769287
0.7131499648094177,0.6635839343070984,0.15951621532440186,-0.16008785367012024
0.7134326100349426,0.6632019281387329,0.15956006944179535,-0.1603674590587616
0.7136175036430359,0.6628886461257935,0.15978851914405823,-0.1606125831604004
0.7138042449951172,0.662528395652771,0.1602293848991394,-0.16082967817783356
0.7137006521224976,0.6624593138694763,0.16065359115600586,-0.16115042567253113
0.7136906981468201,0.6624593734741211,0.16067750751972198,-0.1611703634262085
0.7136837840080261,0.6624489426612854,0.16071532666683197,-0.16120626032352448
0.7136719226837158,0.6624645590782166,0.16071249544620514,-0.16119743883609772
0.7135253548622131,0.6627724170684814,0.16042356193065643,-0.16086851060390472
0.7134591937065125,0.6630004644393921,0.16005177795886993,-0.16059207916259766
0.7134004831314087,0.6631817817687988,0.159796804189682,-0.16035805642604828
0.7133637070655823,0.6633283495903015,0.15953662991523743,-0.16017429530620575
0.7134703993797302,0.6633444428443909,0.15908128023147583,-0.16008548438549042
0.7134701013565063,0.6633780598640442,0.15884479880332947,-0.16018249094486237
0.7134469151496887,0.663415789604187,0.15882427990436554,-0.16014979779720306
0.7136643528938293,0.6631945967674255,0.1587938368320465,-0.1601274609565735
0.7137550115585327,0.6630455851554871,0.1589418351650238,-0.16019317507743835
0.7139732241630554,0.6626812815666199,0.15919668972492218,-0.16047506034374237
0.7141374349594116,0.6623843908309937,0.15941955149173737,-0.16074888408184052
0.7144618630409241,0.6618739366531372,0.15968793630599976,-0.1611429750919342
0.7147243618965149,0.6614326238632202,0.15996325016021729,-0.16151709854602814
0.7149256467819214,0.6610896587371826,0.16024848818778992,-0.16174769401550293
0.7150154113769531,0.6608902812004089,0.16053424775600433,-0.16188213229179382
0.7150062918663025,0.6608819961547852,0.16057297587394714,-0.16191771626472473
0.7149865627288818,0.660885751247406,0.16061335802078247,-0.1619497388601303
0.7149704098701477,0.6609090566635132,0.16040804982185364,-0.1621292233467102
0.7149482369422913,0.6610069870948792,0.1599910408258438,-0.16223971545696259
0.7148386240005493,0.6612317562103271,0.15958859026432037,-0.16220328211784363
0.7147557735443115,0.6614367961883545,0.15931932628154755,-0.16199679672718048
0.7147019505500793,0.6616119146347046,0.15905986726284027,-0.16177399456501007
0.7145404815673828,0.6619116067886353,0.15870000422000885,-0.16161464154720306
0.7144387364387512,0.6621370315551758,0.15820729732513428,-0.16162405908107758
0.7144254446029663,0.6622564196586609,0.15775389969348907,-0.16163676977157593
0.714388906955719,0.6624172329902649,0.15742133557796478,-0.161463662981987
0.7143546938896179,0.6624692678451538,0.1573989987373352,-0.16142375767230988
0.7143714427947998,0.6624776721000671,0.15749281644821167,-0.16122278571128845
0.7143417596817017,0.6625030636787415,0.15751366317272186,-0.16122981905937195
0.7144081592559814,0.662335216999054,0.15768375992774963,-0.161458820104599
0.71448814868927,0.6621083617210388,0.15785261988639832,-0.16186971962451935
0.7146744728088379,0.6618462800979614,0.1577804833650589,-0.16218887269496918
0.7147946953773499,0.6616948246955872,0.15779276192188263,-0.16226552426815033
0.7147176861763,0.6617326140403748,0.15815162658691406,-0.16210079193115234
0.7145601511001587,0.6618291139602661,0.15858791768550873,-0.16197501122951508
0.7145741581916809,0.6617998480796814,0.15861313045024872,-0.16200803220272064
0.7145666480064392,0.6617885231971741,0.15844447910785675,-0.1622525304555893
0.714541494846344,0.6618452668190002,0.15816251933574677,-0.1624063104391098
0.7144226431846619,0.6620005965232849,0.15808266401290894,-0.16237448155879974
0.7143359780311584,0.6621636152267456,0.15802982449531555,-0.16214245557785034
0.7142947316169739,0.6623083353042603,0.15782657265663147,-0.16193096339702606
0.714187502861023,0.6625502705574036,0.15741491317749023,-0.16181473433971405
0.7141649127006531,0.6627357006072998,0.15684331953525543,-0.16170983016490936
0.7141752243041992,0.6628965735435486,0.1562695950269699,-0.16156043112277985
0.7141878604888916,0.6630304455757141,0.1558745950460434,-0.16133707761764526
0.7141867280006409,0.6630406379699707,0.1558559387922287,-0.16131725907325745
0.7142423391342163,0.6630017161369324,0.1559639573097229,-0.1611269861459732
0.7142931222915649,0.6628552675247192,0.15615688264369965,-0.16131721436977386
0.7143794298171997,0.6626120209693909,0.15636354684829712,-0.16173386573791504
0.7145517468452454,0.6622528433799744,0.15655049681663513,-0.16226208209991455
0.7145228385925293,0.6621078848838806,0.15684226155281067,-0.1626986414194107
0.7145126461982727,0.6619756817817688,0.15716013312339783,-0.16297456622123718
0.714434027671814,0.6619141697883606,0.15763680636882782,-0.16310812532901764
0.7143661975860596,0.6618245244026184,0.15816809237003326,-0.16325512528419495
0.7143517732620239,0.6618141531944275,0.15822404623031616,-0.16330596804618835
0.7141292691230774,0.6620283722877502,0.15810903906822205,-0.16352222859859467
0.7139373421669006,0.6622695326805115,0.15789416432380676,-0.1635904163122177
0.7138198018074036,0.662507951259613,0.1576729416847229,-0.16335198283195496
0.7136303782463074,0.662846028804779,0.15756440162658691,-0.16291211545467377
0.713420569896698,0.6631983518600464,0.15736858546733856,-0.1625860035419464
0.7133813500404358,0.6634280681610107,0.15680775046348572,-0.16236305236816406
0.7132949829101562,0.6637217402458191,0.15616169571876526,-0.16216473281383514
0.7131747603416443,0.663986086845398,0.15571922063827515,-0.16203679144382477
0.7131809592247009,0.6640030741691589,0.15566881000995636,-0.1619875431060791
0.7131680846214294,0.6640290021896362,0.15564733743667603,-0.1619589626789093
0.7131520509719849,0.6640525460243225,0.15563853085041046,-0.1619419902563095
0.7131025791168213,0.6639413833618164,0.15609262883663177,-0.16217845678329468
0.7131067514419556,0.6637521982192993,0.15649989247322083,-0.1625417023897171
0.7132138013839722,0.6634454727172852,0.15684671700000763,-0.16298896074295044
0.7131798267364502,0.6633315682411194,0.15718139708042145,-0.16327878832817078
0.7131237387657166,0.6632667183876038,0.15758928656578064,-0.16339395940303802
0.7128982543945312,0.663415253162384,0.15807577967643738,-0.16330517828464508
0.7126608490943909,0.6635602712631226,0.15851210057735443,-0.1633283793926239
0.7125012278556824,0.6636527180671692,0.15865086019039154,-0.16351507604122162
0.7125005722045898,0.6636727452278137,0.1584124118089676,-0.16366754472255707
0.712455689907074,0.6638047695159912,0.1580745428800583,-0.16365410387516022
0.7123327255249023,0.6640509366989136,0.15781575441360474,-0.1634403020143509
0.7121706604957581,0.6644142866134644,0.15751436352729797,-0.16295984387397766
0.7119638919830322,0.6647732257843018,0.15725089609622955,-0.16265369951725006
0.711839497089386,0.6650449633598328,0.15678797662258148,-0.16253449022769928
0.7117719054222107,0.6652393341064453,0.15626613795757294,-0.1625375896692276
0.711763858795166,0.66536545753479,0.15581455826759338,-0.1624898761510849
0.7117612957954407,0.6653879880905151,0.15577475726604462,-0.16244715452194214
0.7117615938186646,0.6653924584388733,0.15576447546482086,-0.1624366194009781
0.7118295431137085,0.6652856469154358,0.15595920383930206,-0.1623901128768921
0.7120195627212524,0.6649634838104248,0.15623489022254944,-0.1626114547252655
0.712190568447113,0.6646312475204468,0.15650568902492523,-0.16295970976352692
0.7123011350631714,0.6643452644348145,0.15672244131565094,-0.1634339988231659
0.712332010269165,0.6641788482666016,0.15690547227859497,-0.1637999713420868
0.7123585939407349,0.6641095876693726,0.1571032553911209,-0.16377559304237366
0.7122458219528198,0.6641883850097656,0.1575872004032135,-0.16348159313201904
0.71209317445755,0.664280354976654,0.15812309086322784,-0.1632547676563263
0.7118592262268066,0.6644648313522339,0.1582612246274948,-0.16339045763015747
0.7117182016372681,0.6646340489387512,0.15784192085266113,-0.16372163593769073
0.7116144895553589,0.6648228168487549,0.15735231339931488,-0.16387729346752167
0.7114559412002563,0.6651180982589722,0.1570769101381302,-0.1636318862438202
0.7113333344459534,0.665353000164032,0.15705779194831848,-0.16322697699069977
0.7111713290214539,0.6656324863433838,0.15698173642158508,-0.16286681592464447
0.7110098004341125,0.6659072637557983,0.15657541155815125,-0.16283920407295227
0.7110466957092285,0.6659494042396545,0.15596936643123627,-0.16308759152889252
0.7111578583717346,0.6658888459205627,0.15549370646476746,-0.16330409049987793
0.7111608982086182,0.6659010052680969,0.1554616540670395,-0.16327211260795593
0.7111935615539551,0.6658576726913452,0.15569503605365753,-0.1630840301513672
0.7112918496131897,0.6656822562217712,0.15607492625713348,-0.1630081981420517
0.7113597989082336,0.6655178666114807,0.15639007091522217,-0.16308100521564484
0.7115458250045776,0.665206253528595,0.15655304491519928,-0.16338449716567993
0.7117050886154175,0.6649136543273926,0.1565857082605362,-0.16384966671466827
0.7117956876754761,0.6647763848304749,0.15652123093605042,-0.16407456994056702
0.711825966835022,0.6647528409957886,0.1564958244562149,-0.1640630066394806
0.7117084264755249,0.6648685932159424,0.15677200257778168,-0.16383978724479675
0.7115922570228577,0.6649848222732544,0.15703421831130981,-0.16362160444259644
0.711554229259491,0.6650115847587585,0.15707150101661682,-0.1636418104171753
0.7113866209983826,0.6651502847671509,0.15699805319309235,-0.16387757658958435
0.7113749384880066,0.6651570796966553,0.15676525235176086,-0.16412322223186493
0.7113995552062988,0.6651315093040466,0.15675759315490723,-0.164127379655838
0.7112525105476379,0.6653243899345398,0.15685483813285828,-0.16389019787311554
0.7110680341720581,0.6655514240264893,0.15695244073867798,-0.16367505490779877
0.7109746336936951,0.6657136678695679,0.15674036741256714,-0.16362419724464417
0.7110047936439514,0.6658303737640381,0.1561613231897354,-0.16357219219207764
0.7110899090766907,0.665842592716217,0.15573719143867493,-0.16355635225772858
0.711081862449646,0.6658649444580078,0.1557113528251648,-0.16352541744709015
0.7113502025604248,0.6656436920166016,0.15562079846858978,-0.16334500908851624
0.7113277316093445,0.6656554341316223,0.15565143525600433,-0.1633659452199936
0.7112478613853455,0.6656433343887329,0.155445858836174,-0.16395795345306396
0.7112333178520203,0.6655423641204834,0.15473325550556183,-0.16510005295276642
0.7108988761901855,0.6655831336975098,0.15365254878997803,-0.16737054288387299
0.7108319401741028,0.66519695520401,0.15183882415294647,-0.17081019282341003
0.7106646299362183,0.6648440361022949,0.14903700351715088,-0.1752888262271881
0.7103729844093323,0.6646820902824402,0.1448264718055725,-0.18053601682186127
0.7101053595542908,0.6644957065582275,0.13836604356765747,-0.1872183382511139
0.709797739982605,0.6645539402961731,0.12779788672924042,-0.19550743699073792
0.7092453241348267,0.6650915145874023,0.11306362599134445,-0.2045506238937378
0.7095332145690918,0.6654380559921265,0.09557174146175385,-0.21123623847961426
0.7098502516746521,0.6662665605545044,0.07958131283521652,-0.2141691893339157
0.7103062272071838,0.6675023436546326,0.0683136060833931,-0.21269440650939941
0.7095968127250671,0.669662356376648,0.06228497624397278,-0.21010813117027283
0.7089656591415405,0.6707451939582825,0.056510891765356064,-0.2104164958000183
0.707740306854248,0.6711554527282715,0.05061633139848709,-0.21469077467918396
0.7070369720458984,0.6706685423851013,0.04522092267870903,-0.2196759730577469
0.707229733467102,0.6692137122154236,0.043484896421432495,-0.22380392253398895
0.707451581954956,0.6678308844566345,0.04448815807700157,-0.22701364755630493
0.7078723907470703,0.6664062738418579,0.0443013496696949,-0.22990594804286957
0.7089688181877136,0.6644895076751709,0.04212011769413948,-0.23247098922729492
0.7100794911384583,0.6626060605049133,0.04121242091059685,-0.2346104085445404
0.7109531164169312,0.6609342098236084,0.03997001424431801,-0.23688437044620514
0.7116973996162415,0.6596381068229675,0.03900705650448799,-0.23841725289821625
0.7115628719329834,0.6596813797950745,0.040427014231681824,-0.23846295475959778
0.7109581828117371,0.6602107286453247,0.043201278895139694,-0.238314688205719
0.7110907435417175,0.6598269939422607,0.043509792536497116,-0.23892517387866974
0.7114326357841492,0.6590259075164795,0.04212615638971329,-0.24036209285259247
0.7115883231163025,0.6585118174552917,0.04137258231639862,-0.24143846333026886
0.7115064859390259,0.6585199236869812,0.041359495371580124,-0.2416599690914154
0.7107017040252686,0.6594536900520325,0.04258371517062187,-0.24126847088336945
0.7100706696510315,0.6602425575256348,0.04377875104546547,-0.24075482785701752
0.7098150849342346,0.6604834794998169,0.043445002287626266,-0.2409081757068634
0.7101690769195557,0.6600407361984253,0.041783809661865234,-0.24137143790721893
0.7105910778045654,0.6597353219985962,0.04003603756427765,-0.2412606030702591
0.7104024291038513,0.6601676344871521,0.04032362625002861,-0.24058493971824646
0.7101091146469116,0.6606801152229309,0.041321009397506714,-0.23987415432929993
0.7100800275802612,0.6607780456542969,0.041326697915792465,-0.23968879878520966
0.7100587487220764,0.6607276201248169,0.040834639221429825,-0.23997536301612854
0.7103379368782043,0.66034996509552,0.0398891307413578,-0.24034765362739563
0.7102943658828735,0.6603438854217529,0.03917012736201286,-0.24061116576194763
0.7100943326950073,0.6605863571166992,0.038974981755018234,-0.24056756496429443
0.7096900939941406,0.6610493063926697,0.039700698107481,-0.24037019908428192
0.709316611289978,0.6613269448280334,0.04004402831196785,-0.24065159261226654
0.7090998291969299,0.661566436290741,0.03915022686123848,-0.24077951908111572
0.7088878750801086,0.6617681384086609,0.038484830409288406,-0.24095657467842102
0.7088872790336609,0.6618250608444214,0.03714087978005409,-0.24101267755031586
0.7084819078445435,0.6623328328132629,0.03614550456404686,-0.24096131324768066
0.7080525755882263,0.6630279421806335,0.03601743280887604,-0.24032972753047943
0.707760751247406,0.6635107398033142,0.03570471331477165,-0.2399030327796936
0.7078102231025696,0.6636204719543457,0.0345553383231163,-0.23962172865867615
0.7077764868736267,0.6637967824935913,0.03351117670536041,-0.23938095569610596
0.7077598571777344,0.6639631986618042,0.032891497015953064,-0.23905442655086517
0.7075883150100708,0.6642950773239136,0.032854583114385605,-0.23864513635635376
0.7074941396713257,0.664541482925415,0.033379875123500824,-0.23816488683223724
0.7074827551841736,0.6646172404289246,0.033741146326065063,-0.23793645203113556
0.7075129151344299,0.6646212339401245,0.03351740911602974,-0.23786672949790955
0.7073404788970947,0.664853036403656,0.03416750580072403,-0.23763953149318695
0.7073100805282593,0.664919376373291,0.035166628658771515,-0.23739853501319885
0.7074854373931885,0.6646634340286255,0.035584475845098495,-0.23753052949905396
0.7075285911560059,0.6645625829696655,0.035989318042993546,-0.23762311041355133
0.7075586318969727,0.6646037101745605,0.03638789430260658,-0.23735776543617249
0.707670271396637,0.6644619107246399,0.03687688335776329,-0.2373465895652771
0.7075661420822144,0.664589524269104,0.037229880690574646,-0.23724469542503357
0.7075990438461304,0.6646407246589661,0.03744377940893173,-0.23696939647197723
0.7075034379959106,0.664861798286438,0.03762665018439293,-0.23660537600517273
0.7073748111724854,0.6651217937469482,0.037868063896894455,-0.23621973395347595
0.7072362303733826,0.66534823179245,0.03812909126281738,-0.235955148935318
0.7072598338127136,0.6653331518173218,0.03809570521116257,-0.23593242466449738
0.7072978019714355,0.6653123497962952,0.03803323954343796,-0.23588745296001434
0.707297682762146,0.6654101014137268,0.038453880697488785,-0.23554380238056183
0.7071457505226135,0.6656737923622131,0.03936859965324402,-0.2351028472185135
0.7067869901657104,0.6661001443862915,0.040287453681230545,-0.2348182201385498
0.7067622542381287,0.6661252379417419,0.040299396961927414,-0.23481982946395874
0.7068415880203247,0.6659387350082397,0.039723753929138184,-0.23520751297473907
0.7067393660545349,0.6659649610519409,0.039362430572509766,-0.235501229763031
0.7064481973648071,0.666267454624176,0.04001826420426369,-0.23540863394737244
0.7061556577682495,0.6665663719177246,0.04072805866599083,-0.2353186160326004
0.7062674760818481,0.6664071083068848,0.040157750248909,-0.23553146421909332
0.70634526014328,0.6662957668304443,0.03908129408955574,-0.23579464852809906
0.7062522768974304,0.6664347052574158,0.03851420432329178,-0.2357737421989441
0.7060275077819824,0.6668068170547485,0.038623325526714325,-0.23537662625312805
0.7056588530540466,0.6672909259796143,0.0389341302216053,-0.23505863547325134
0.7054123282432556,0.667567789554596,0.03856875002384186,-0.23507297039031982
0.7053863406181335,0.6675472259521484,0.03785273805260658,-0.23532529175281525
0.705427885055542,0.6675159931182861,0.03780614957213402,-0.23529674112796783
0.7052711844444275,0.6677613854408264,0.038333773612976074,-0.23498478531837463
0.7052708864212036,0.6678462028503418,0.0388190858066082,-0.23466476798057556
0.7054584622383118,0.6676200032234192,0.03908425569534302,-0.23470069468021393
0.7056275010108948,0.6673749685287476,0.03907528519630432,-0.2348908632993698
0.705622673034668,0.6673575043678284,0.03921728581190109,-0.23493149876594543
0.7055017948150635,0.6675175428390503,0.0398135632276535,-0.23473937809467316
0.7054675221443176,0.667534589767456,0.040428388863801956,-0.23468853533267975
0.705435574054718,0.6675674915313721,0.04044166952371597,-0.23468859493732452
0.7054510116577148,0.6675506830215454,0.04043751209974289,-0.23469075560569763
0.7055253982543945,0.6675618290901184,0.04039812088012695,-0.23444224894046783
0.7054587602615356,0.6677250862121582,0.040122609585523605,-0.2342250645160675
0.7054808139801025,0.6678248047828674,0.0395406037569046,-0.2339731901884079
0.7054860591888428,0.6679678559303284,0.039075225591659546,-0.23362688720226288
0.7054264545440674,0.6681965589523315,0.038985274732112885,-0.23316766321659088
0.7054238319396973,0.6683581471443176,0.03875545784831047,-0.23275049030780792
0.7054250240325928,0.6683565378189087,0.03875579312443733,-0.2327512800693512
0.7055867910385132,0.668231725692749,0.03886568173766136,-0.23260124027729034
0.7053785920143127,0.6684767007827759,0.03981810435652733,-0.23236699402332306
0.7053237557411194,0.6685053110122681,0.04044124484062195,-0.23234356939792633
0.705245316028595,0.6685442328453064,0.04051966965198517,-0.2324562519788742
0.7051551342010498,0.6686103343963623,0.04097968712449074,-0.232459157705307
0.7051109075546265,0.6687324643135071,0.04143752157688141,-0.2321605235338211
0.704899251461029,0.6689980626106262,0.042360514402389526,-0.23187144100666046
0.7048780918121338,0.6690837740898132,0.042684122920036316,-0.23162908852100372
0.7051022052764893,0.6689186692237854,0.04252836853265762,-0.23145245015621185
0.7052695155143738,0.6687954664230347,0.042327217757701874,-0.2313348799943924
0.705294132232666,0.6687713861465454,0.042314331978559494,-0.2313321977853775
0.7052950859069824,0.6689023971557617,0.042320214211940765,-0.23094920814037323
0.7051411271095276,0.6692361831665039,0.042455825954675674,-0.2304268777370453
0.7051875591278076,0.6693492531776428,0.042389485985040665,-0.22996823489665985
0.7051898837089539,0.6694340705871582,0.04208767041563988,-0.22976917028427124
0.7052076458930969,0.6694203019142151,0.042069319635629654,-0.2297583818435669
0.7052190899848938,0.6694196462631226,0.04203655198216438,-0.22973103821277618
0.7051000595092773,0.669589102268219,0.042273618280887604,-0.2295590043067932
0.7048989534378052,0.6698176264762878,0.042537156492471695,-0.22946129739284515
0.7049148678779602,0.6698094606399536,0.0425100177526474,-0.22944119572639465
0.7049158215522766,0.6698028445243835,0.042523883283138275,-0.22945508360862732
0.70488041639328,0.6698287129402161,0.04256463795900345,-0.22948072850704193
0.7050214409828186,0.6696374416351318,0.042435262352228165,-0.22962942719459534
0.7050472497940063,0.6696202158927917,0.042401786893606186,-0.22960707545280457
0.7050617933273315,0.6696025133132935,0.04240221902728081,-0.2296132892370224
0.7050424218177795,0.6696197986602783,0.042416978627443314,-0.22961995005607605
0.7050381302833557,0.6696301698684692,0.042204320430755615,-0.2296421378850937
0.7050960063934326,0.6696146726608276,0.04172555357217789,-0.2295970916748047
0.7050129771232605,0.6698213219642639,0.04139997065067291,-0.2293081134557724
0.7049843072891235,0.6699965596199036,0.0414399690926075,-0.2288767397403717
0.7049561738967896,0.6700168251991272,0.04147302359342575,-0.2288978397846222
0.7050686478614807,0.6698784828186035,0.04099375009536743,-0.22904299199581146
0.7050851583480835,0.669869065284729,0.040967825800180435,-0.2290242612361908
0.7048646211624146,0.6700788140296936,0.04134783893823624,-0.2290213704109192
0.7046893835067749,0.6701573133468628,0.04191593825817108,-0.2292269617319107
0.7046016454696655,0.6701639890670776,0.04223894327878952,-0.229418084025383
0.7045191526412964,0.6701379418373108,0.04252757504582405,-0.22969405353069305
0.704503059387207,0.6700882911682129,0.04229826107621193,-0.22993025183677673
0.7042871117591858,0.670254111289978,0.042044397443532944,-0.230154886841774
0.7042734026908875,0.6702655553817749,0.04205668345093727,-0.23016144335269928
0.7041387557983398,0.6704803705215454,0.042128559201955795,-0.22993484139442444
0.7039376497268677,0.6707704067230225,0.04191095009446144,-0.22974444925785065
0.7038257718086243,0.6709312796592712,0.041602592915296555,-0.22967348992824554
0.7037103176116943,0.671109676361084,0.0413370206952095,-0.22955361008644104
0.7037254571914673,0.6710985898971558,0.041319675743579865,-0.22954267263412476
0.7037416696548462,0.6710842251777649,0.04130733385682106,-0.22953705489635468
0.7037413716316223,0.6711006164550781,0.04126731678843498,-0.22949784994125366
0.7037281394004822,0.6711155772209167,0.041268691420555115,-0.22949396073818207
0.703752338886261,0.6709756851196289,0.04158993065357208,-0.2297707349061966
0.7039022445678711,0.6706347465515137,0.04147952422499657,-0.23032642900943756
0.7037656307220459,0.6705976724624634,0.041573818773031235,-0.23083418607711792
0.7035621404647827,0.6707128882408142,0.042083680629730225,-0.23102718591690063
0.7035278677940369,0.6707308292388916,0.042140692472457886,-0.23106922209262848
0.7035152316093445,0.6706845760345459,0.04171678051352501,-0.23131869733333588
0.7034597992897034,0.6707472205162048,0.04142579436302185,-0.23135751485824585
0.7033746838569641,0.6708680987358093,0.04187250882387161,-0.23118579387664795
0.7034497857093811,0.6708998084068298,0.04149826616048813,-0.23093242943286896
0.7035267949104309,0.6709394454956055,0.04081810638308525,-0.23070378601551056
0.7036404013633728,0.6709409356117249,0.040828511118888855,-0.23035091161727905
0.7035696506500244,0.671127438545227,0.04133973270654678,-0.22993220388889313
0.7036758661270142,0.6710748076438904,0.04150542989373207,-0.22973096370697021
0.7038329839706421,0.6709153056144714,0.04166431725025177,-0.22968648374080658
0.704168975353241,0.6706123948097229,0.04149460047483444,-0.2295721173286438
0.7042478322982788,0.6705358624458313,0.041659627109766006,-0.22952410578727722
0.7040038704872131,0.6707229018211365,0.04230779781937599,-0.229607492685318
0.7039670944213867,0.6706728935241699,0.04263513907790184,-0.22980532050132751
0.7039565443992615,0.6706836819648743,0.04263930022716522,-0.22980521619319916
0.703963577747345,0.6706755757331848,0.042638588696718216,-0.22980733215808868
0.7039646506309509,0.6706704497337341,0.04264817759394646,-0.22981715202331543
0.7038129568099976,0.6708961725234985,0.04286619648337364,-0.2295828014612198
0.7037480473518372,0.6710776090621948,0.043094176799058914,-0.22920837998390198
0.7037960290908813,0.6710960268974304,0.04284249246120453,-0.22905443608760834
0.703807532787323,0.6710896492004395,0.04282434284687042,-0.22904124855995178
0.7039521932601929,0.6709989905357361,0.04283744469285011,-0.22885988652706146
0.7041116952896118,0.670872688293457,0.04302070662379265,-0.22870463132858276
0.7042390704154968,0.670761227607727,0.043351344764232635,-0.22857709228992462
0.7044014930725098,0.670582115650177,0.04358788579702377,-0.22855733335018158
0.7045917510986328,0.6703808307647705,0.04358981177210808,-0.2285604029893875
0.7047240138053894,0.6701871752738953,0.04394030198454857,-0.22865356504917145
0.7048012018203735,0.6700328588485718,0.04435429722070694,-0.22878803312778473
0.704807698726654,0.6700249314308167,0.044355057179927826,-0.22879137098789215
0.7048416137695312,0.669884979724884,0.04426545277237892,-0.22911377251148224
0.7048552632331848,0.6698679327964783,0.044267479330301285,-0.22912119328975677
0.7048978209495544,0.669828474521637,0.04423949867486954,-0.22911091148853302
0.7049098610877991,0.6698141694068909,0.04423937574028969,-0.22911560535430908
0.7048993706703186,0.6698206663131714,0.044254399836063385,-0.22912605106830597
0.7049131393432617,0.6697993874549866,0.04426666721701622,-0.22914351522922516
0.7048845887184143,0.6698320508003235,0.04426989704370499,-0.22913524508476257
0.7049514651298523,0.6697964072227478,0.04379096254706383,-0.22912585735321045
0.7049484848976135,0.6698066592216492,0.043774209916591644,-0.2291083186864853
0.7049403190612793,0.66981041431427,0.04378923401236534,-0.2291196882724762
0.704990565776825,0.6696802377700806,0.04402885586023331,-0.2292996346950531
0.7048903107643127,0.6696991920471191,0.044048599898815155,-0.22954869270324707
0.7049804329872131,0.6694891452789307,0.04401371628046036,-0.22989046573638916
0.7049716114997864,0.6694906949996948,0.04403630271553993,-0.22990894317626953
0.7050012350082397,0.6693771481513977,0.04382936656475067,-0.2301880270242691
0.7048599720001221,0.6694650053977966,0.04346534609794617,-0.23043401539325714
0.7045435905456543,0.6698278784751892,0.04373151436448097,-0.23029667139053345
0.7042946219444275,0.6701366901397705,0.044112686067819595,-0.23008699715137482
0.703995943069458,0.6704649329185486,0.043998681008815765,-0.23006673157215118
0.703823983669281,0.6706462502479553,0.043489325791597366,-0.23016123473644257
0.7037549614906311,0.6706596612930298,0.04292686656117439,-0.2304387241601944
0.703620195388794,0.670759916305542,0.04264578968286514,-0.230610191822052
0.7034362554550171,0.6709105968475342,0.04296054318547249,-0.2306748628616333
0.70331871509552,0.6709534525871277,0.04376213252544403,-0.23075801134109497
0.7031723260879517,0.670927107334137,0.04456355795264244,-0.2311268150806427
0.7031908631324768,0.6706460118293762,0.04485622048377991,-0.23182864487171173
0.7032427787780762,0.6703335642814636,0.04525410383939743,-0.23249618709087372
0.7032897472381592,0.6700572371482849,0.04542350023984909,-0.23311705887317657
0.7033177614212036,0.6699388027191162,0.04562533646821976,-0.2333335280418396
0.7031151652336121,0.6700596809387207,0.04675392434000969,-0.2333732694387436
0.702886700630188,0.6702752709388733,0.04718626290559769,-0.2333555966615677
0.7029789686203003,0.6702239513397217,0.046558771282434464,-0.23335109651088715
0.7029661536216736,0.6702350378036499,0.04656932130455971,-0.23335616290569305
0.7030760645866394,0.6702039241790771,0.046617522835731506,-0.23310405015945435
0.7030735611915588,0.6702046394348145,0.04662318155169487,-0.2331085503101349
0.7029908299446106,0.6703227758407593,0.04691705107688904,-0.2329595386981964
0.7029759287834167,0.6703382134437561,0.04692287743091583,-0.23295912146568298
0.7029788494110107,0.6703270077705383,0.046941518783569336,-0.23297861218452454
0.7029915452003479,0.6703068017959595,0.04695374518632889,-0.23299582302570343
0.7029973864555359,0.6702909469604492,0.04697548225522041,-0.23301954567432404
0.7030084133148193,0.6702824234962463,0.046964433044195175,-0.23301324248313904
0.7030031085014343,0.670275866985321,0.046995654702186584,-0.2330416887998581
0.7030074596405029,0.670256495475769,0.047030165791511536,-0.23307734727859497
0.7030430436134338,0.6701962947845459,0.046798307448625565,-0.23318955302238464
0.7030516266822815,0.6702160835266113,0.04639657586812973,-0.2331870198249817
0.7030500769615173,0.6702479720115662,0.046593308448791504,-0.2330610156059265
0.7028841972351074,0.6703931093215942,0.047387730330228806,-0.23298342525959015
0.7029562592506409,0.67023104429245,0.04729493707418442,-0.23325113952159882
0.702895998954773,0.6701912879943848,0.04656601697206497,-0.23369330167770386
0.7028841972351074,0.6702100038528442,0.04655487462878227,-0.23367750644683838
0.7027995586395264,0.6702513694763184,0.04697971045970917,-0.233728289604187
0.7028073072433472,0.6702359318733215,0.04699472710490227,-0.2337462157011032
0.7028726935386658,0.6701079607009888,0.04670645296573639,-0.23397402465343475
0.7028775811195374,0.6701037883758545,0.04670245572924614,-0.23397211730480194
0.7028855681419373,0.6700922250747681,0.04670746624469757,-0.23398031294345856
0.702854335308075,0.670112669467926,0.04674835875630379,-0.23400753736495972
0.7028653621673584,0.6700777411460876,0.046369682997465134,-0.23414991796016693
0.7028728723526001,0.6700664758682251,0.0463748462498188,-0.23415809869766235
0.7028437852859497,0.6700870990753174,0.046409204602241516,-0.2341797798871994
0.7028108239173889,0.6700206995010376,0.046340055763721466,-0.2344822883605957
0.7028749585151672,0.6698960661888123,0.04580482840538025,-0.23475077748298645
0.7027371525764465,0.6700689196586609,0.046043798327445984,-0.23462335765361786
0.7024595737457275,0.6704084873199463,0.04716198891401291,-0.23426216840744019
0.7023984789848328,0.6704822778701782,0.047646887600421906,-0.2341364026069641
0.7025181651115417,0.6703200340270996,0.04712224379181862,-0.23434779047966003
0.702562153339386,0.6702893972396851,0.04706929624080658,-0.2343139946460724
0.7027587890625,0.6702927350997925,0.04789881408214569,-0.23354531824588776
0.7031461000442505,0.6702985167503357,0.04940296709537506,-0.23204515874385834
0.7035715579986572,0.6705012321472168,0.05183909460902214,-0.22962546348571777
0.7039899230003357,0.67095947265625,0.0558687224984169,-0.22603173553943634
0.7039362192153931,0.6721658706665039,0.062411800026893616,-0.2208428829908371
0.7033969759941101,0.6739307641983032,0.07109378278255463,-0.21446631848812103
0.702271580696106,0.6761699318885803,0.0817110612988472,-0.20720109343528748
0.7011100053787231,0.6781364679336548,0.09350196272134781,-0.19958233833312988
0.699612557888031,0.6799669861793518,0.10584293305873871,-0.19231341779232025
0.6982080340385437,0.6810284852981567,0.11917053908109665,-0.18575307726860046
0.6966239213943481,0.6815310716629028,0.1326400190591812,-0.1806580126285553
0.6951358318328857,0.6812154650688171,0.14556270837783813,-0.17760398983955383
0.6943340301513672,0.6796477437019348,0.15771901607513428,-0.17636340856552124
0.6943944096565247,0.6769867539405823,0.1676567643880844,-0.17719078063964844
0.6954507827758789,0.6732472777366638,0.17569521069526672,-0.1794922947883606
0.6975751519203186,0.668870210647583,0.18096941709518433,-0.18235066533088684
0.7005484104156494,0.664545476436615,0.18272218108177185,-0.18499667942523956
0.7044960856437683,0.6598833203315735,0.1822066307067871,-0.18718980252742767
0.7088056802749634,0.6552265882492065,0.18117856979370117,-0.18827389180660248
0.7119461297988892,0.6517738103866577,0.18130052089691162,-0.18829162418842316
0.7145720720291138,0.6489468812942505,0.18217232823371887,-0.1872643679380417
0.7167758941650391,0.6467167139053345,0.18238939344882965,-0.18634404242038727
0.7187662124633789,0.6448788642883301,0.18148338794708252,-0.18593083322048187
0.7203802466392517,0.6434767246246338,0.1803925633430481,-0.1856033056974411
0.721392810344696,0.6426029205322266,0.18012036383152008,-0.1849610060453415
0.7221312522888184,0.6420242786407471,0.18004311621189117,-0.18416287004947662
0.7225188612937927,0.641836941242218,0.18007677793502808,-0.18325988948345184
0.7226091027259827,0.6419036388397217,0.18041948974132538,-0.18233145773410797
0.7226008772850037,0.6420273780822754,0.18088848888874054,-0.1814616620540619
0.7220138907432556,0.6426156759262085,0.18224020302295685,-0.18035976588726044
0.7213693857192993,0.6431849002838135,0.18367691338062286,-0.17944969236850739
0.7207630276679993,0.643764078617096,0.18414510786533356,-0.17932964861392975
0.7204465866088867,0.6442192792892456,0.1831790953874588,-0.17995479702949524
0.720315158367157,0.6446047425270081,0.181538388133049,-0.1807611733675003
0.7199026346206665,0.6451827883720398,0.1806587129831314,-0.18122339248657227
0.7193529009819031,0.6457355618476868,0.1811930537223816,-0.1809035837650299
0.7188608050346375,0.6460698843002319,0.18256764113903046,-0.18028315901756287
0.7184409499168396,0.6461958289146423,0.18396449089050293,-0.18008477985858917
0.7182150483131409,0.6462172269821167,0.18440940976142883,-0.1804543137550354
0.7178119421005249,0.646519660949707,0.18418411910533905,-0.1812027245759964
0.717411458492279,0.6469199657440186,0.18387718498706818,-0.1816714107990265
0.7171708941459656,0.6472222208976746,0.18382899463176727,-0.18159398436546326
0.7167253494262695,0.6475902199745178,0.18463344871997833,-0.1812240481376648
0.7163145542144775,0.6479237079620361,0.18529726564884186,-0.18097873032093048
0.7158012390136719,0.6484132409095764,0.18535402417182922,-0.18119853734970093
0.7154650092124939,0.6487973928451538,0.18484310805797577,-0.18167240917682648
0.7150788307189941,0.6493233442306519,0.18424344062805176,-0.18192291259765625
0.7146058678627014,0.6499906182289124,0.18388283252716064,-0.1817634254693985
0.7142348289489746,0.6506140828132629,0.1836394965648651,-0.18123632669448853
0.7139894962310791,0.6511209011077881,0.18342632055282593,-0.18059763312339783
0.7135365009307861,0.6518457531929016,0.18312738835811615,-0.18007555603981018
0.7132226824760437,0.6524406671524048,0.18254020810127258,-0.17976053059101105
0.7130129933357239,0.6528912782669067,0.18206404149532318,-0.1794385015964508
0.7129351496696472,0.6532383561134338,0.18167157471179962,-0.1788814812898636
0.7128077745437622,0.6536195874214172,0.1814165562391281,-0.178254634141922
0.7126997709274292,0.6539157629013062,0.181188702583313,-0.1778314709663391
0.7126721739768982,0.6541483998298645,0.18073563277721405,-0.17754703760147095
0.7125352621078491,0.6544884443283081,0.1803438514471054,-0.17724157869815826
0.7122706174850464,0.6549122929573059,0.1802966445684433,-0.17678745090961456
0.712014377117157,0.6552659869194031,0.1805490106344223,-0.17625005543231964
0.7116952538490295,0.655647337436676,0.18087764084339142,-0.17578312754631042
0.711183488368988,0.6561523675918579,0.18124371767044067,-0.17559310793876648
