120,121,121,122,121,120,120,120,120,122,122,122,120,120,121,120,121,122,121,122,121,121,122,122,121,121,120,122,121,122,122,120,120,121,120,122,121,121,122,121,120,122,121,122,120,120,121,120,121,122,122,122,121,122,122,120,120,121,122,121,121,121,121,121,121,122,121,121,121,121,121,121,121,122,121,121,120,121,122,120,121,122,121,121,121,121,121,121,121,122,121,123,122,121,121,122,121,120,121,122,121,121,122,121,120,122,121,119,120,122,122,121,120,121,120,121,120,120,121,120,122,124,122,123,121,121,121,121
121,122,121,123,121,120,121,120,122,123,122,122,120,122,122,121,121,123,122,123,121,121,120,120,120,119,120,122,122,121,121,120,120,122,121,122,121,120,121,120,120,120,120,121,121,121,121,121,120,122,121,122,121,120,121,120,122,123,121,122,121,121,121,121,121,122,121,121,120,121,122,121,119,120,121,122,121,121,121,119,121,122,120,121,121,121,121,120,121,120,120,121,121,121,121,121,120,123,122,122,121,121,122,121,121,120,121,122,120,120,121,120,121,123,122,122,121,121,121,120,120,121,122,122,121,121,121,120
120,121,121,122,121,121,121,121,119,121,120,122,121,121,122,120,121,121,121,121,121,121,122,121,120,123,121,122,121,121,120,120,120,120,121,122,121,120,121,120,122,123,122,122,121,122,121,121,121,122,122,122,121,120,121,121,121,122,121,121,121,121,121,121,120,121,121,122,121,121,122,120,120,122,121,122,120,121,121,121,119,121,121,122,121,121,121,119,120,121,121,122,121,121,121,120,119,120,121,122,121,121,122,119,120,121,121,122,121,121,120,120,121,123,122,123,121,121,122,121,120,121,120,122,121,122,122,120
119,120,121,122,122,121,121,119,121,122,121,122,120,121,121,121,120,122,121,122,121,122,121,119,121,122,121,122,122,121,122,121,120,121,121,122,121,121,122,120,120,121,120,122,121,121,121,119,120,121,121,122,121,121,120,120,120,121,121,122,121,122,121,119,120,122,121,121,120,121,121,120,120,122,121,122,121,121,121,120,120,121,120,121,121,121,121,121,122,121,120,121,121,121,122,120,121,122,121,122,121,120,121,120,120,121,120,122,121,121,121,120,121,119,120,121,121,121,121,120,121,124,122,122,122,121,120,120
120,120,121,122,121,121,121,120,119,119,120,122,121,121,120,119,120,121,121,122,121,121,122,120,121,123,122,122,121,121,122,121,120,121,122,123,121,121,122,120,121,123,121,122,121,121,120,120,119,119,120,122,122,121,121,119,120,121,121,122,122,121,121,120,120,121,121,122,121,121,122,120,121,122,121,121,120,121,121,121,121,121,120,122,121,121,122,121,121,122,121,122,121,121,121,120,121,122,121,122,121,120,120,121,121,121,121,121,121,121,121,121,120,122,121,122,121,122,121,119,120,122,121,122,121,121,122,120
120,121,121,122,122,122,121,120,121,122,121,122,121,121,121,121,121,120,120,122,121,122,122,121,121,122,120,121,121,121,122,121,121,121,120,121,120,121,121,121,121,121,120,122,121,121,122,121,121,122,121,121,121,121,122,121,120,122,121,122,121,120,121,120,121,122,121,121,120,120,121,121,121,122,121,121,121,121,121,121,121,122,121,122,121,121,121,120,120,121,121,122,121,120,121,120,120,120,120,122,121,121,122,121,121,122,122,122,121,120,121,120,121,121,119,121,121,122,121,121,121,122,122,122,121,120,121,120
121,122,121,122,122,121,120,119,121,122,122,121,121,120,121,121,121,122,122,122,121,121,122,121,120,121,121,122,121,121,122,119,120,122,121,121,120,121,121,121,121,121,121,122,121,121,121,120,120,120,121,121,121,121,121,120,122,121,120,122,121,121,122,121,120,121,121,122,122,121,121,119,121,121,121,122,121,122,122,121,121,122,122,121,120,120,121,120,121,121,120,121,121,121,122,121,121,122,120,121,121,121,122,120,119,120,121,122,122,122,121,120,121,122,121,122,120,120,121,120,121,120,120,121,121,121,121,121
121,124,122,122,120,121,121,119,121,121,121,121,121,121,121,120,121,122,121,122,121,120,121,120,120,121,121,122,121,121,120,120,121,122,122,122,121,121,121,121,121,121,120,122,121,121,121,121,121,121,120,122,122,121,121,120,121,121,120,121,121,121,122,121,121,122,121,122,122,121,121,119,120,120,122,122,122,121,120,119,120,121,121,122,120,120,121,120,120,122,121,122,121,121,120,120,120,122,121,122,122,121,120,120,121,121,121,122,121,121,121,121,120,121,121,122,121,122,121,119,120,121,121,121,120,121,121,120
121,122,121,121,121,121,121,121,121,122,122,122,121,121,122,121,120,122,121,121,121,120,122,120,120,121,121,122,121,122,121,120,121,120,121,122,121,121,122,121,120,123,121,121,121,121,122,122,121,122,121,121,121,121,122,120,120,120,121,121,120,120,121,120,120,121,120,121,120,120,121,120,121,122,122,122,121,121,120,119,122,124,122,122,121,121,122,122,120,120,121,122,122,122,121,120,121,122,122,122,122,121,121,120,120,124,121,122,121,121,122,120,119,117,119,121,121,121,121,121,120,122,121,122,121,120,120,120
121,122,121,122,121,121,122,120,121,121,120,121,121,121,122,121,121,120,120,121,120,121,121,121,121,123,122,122,121,122,121,120,120,120,121,122,122,121,121,120,120,121,120,122,121,121,121,119,120,120,120,121,121,121,121,120,121,122,122,123,122,121,121,120,121,122,122,122,121,120,121,121,120,123,121,121,120,120,121,120,120,120,121,122,121,120,121,120,120,121,121,122,121,121,122,121,120,121,121,122,121,120,120,120,120,121,121,122,121,120,121,121,121,121,120,122,121,121,122,120,121,122,121,122,122,121,121,120
122,124,121,121,120,121,121,120,119,120,121,122,121,121,121,120,119,118,119,120,120,121,121,120,121,123,121,121,121,121,121,120,122,123,122,123,122,121,121,121,120,121,120,122,121,121,122,121,121,122,121,121,120,121,121,121,121,123,121,122,120,121,121,120,120,120,119,121,121,121,121,120,121,121,121,121,120,121,121,120,121,122,121,122,121,120,121,121,121,123,122,121,120,121,121,121,120,121,120,122,121,120,120,120,120,118,120,121,121,121,121,120,121,123,121,121,121,121,121,121,121,122,122,121,120,121,121,120
121,122,122,123,121,121,120,120,120,120,121,122,121,122,122,121,119,120,121,121,120,121,121,120,121,123,121,122,121,122,122,121,120,122,121,122,121,120,121,120,119,118,120,122,121,121,121,119,121,122,121,121,120,121,121,121,122,123,122,122,121,121,122,121,121,123,122,122,121,120,121,120,120,121,119,121,121,121,121,120,119,119,120,121,121,121,122,120,121,121,121,122,121,121,121,121,120,122,121,122,121,121,121,121,119,120,121,122,120,121,121,120,120,122,122,121,121,121,121,120,120,122,120,121,121,121,122,120
121,122,122,122,121,121,122,120,121,121,121,122,122,122,121,119,121,120,120,121,121,121,122,121,120,121,121,122,122,121,121,120,120,121,121,122,121,120,121,119,122,124,121,121,121,121,122,121,120,120,120,121,121,121,121,120,120,121,121,122,120,120,121,120,121,121,121,122,121,121,121,120,120,122,121,122,121,122,121,120,120,121,121,122,121,120,120,119,121,121,120,121,121,121,122,121,121,121,122,122,121,122,122,121,120,124,121,122,121,121,121,121,118,118,120,121,121,120,120,119,120,122,121,122,120,121,121,120
121,122,122,123,121,121,121,120,122,122,121,121,121,121,121,121,120,120,120,121,121,121,121,120,120,120,120,122,121,121,122,119,122,122,122,122,121,120,121,121,121,123,121,122,120,121,121,121,119,119,121,122,121,120,120,120,119,121,121,122,121,121,120,119,122,123,121,121,121,121,122,121,121,122,121,122,122,122,121,120,121,122,122,122,121,120,121,120,119,119,120,121,122,121,121,120,120,121,121,122,121,121,122,120,119,120,121,122,121,121,121,120,121,122,121,122,121,120,121,121,120,120,120,121,121,121,122,121
121,122,121,121,121,121,121,120,121,122,121,121,121,121,121,121,120,121,120,121,121,121,122,120,120,120,120,121,121,121,122,120,120,122,121,121,120,121,121,120,122,121,121,122,122,122,121,120,120,122,121,123,122,122,121,120,121,121,121,122,121,121,120,120,118,119,119,121,121,121,122,120,121,121,122,122,121,121,121,120,121,122,121,122,122,122,122,121,120,122,121,122,121,121,122,120,120,121,121,122,122,122,121,120,119,119,119,121,121,121,121,120,120,121,120,122,121,121,120,119,121,122,121,122,122,121,121,120
121,121,121,122,121,121,121,120,120,122,122,122,122,120,121,120,121,122,120,121,120,121,122,121,121,121,121,122,121,122,121,121,122,124,121,121,121,121,121,121,120,120,121,122,122,121,121,119,120,120,120,121,121,121,121,120,121,123,121,121,120,121,122,121,120,122,121,122,121,121,121,120,120,121,121,122,122,120,120,120,120,121,121,121,120,121,121,121,122,122,120,121,121,121,122,121,120,122,121,122,121,121,120,121,120,122,120,121,120,121,121,120,121,122,121,122,121,120,121,121,120,120,120,121,121,121,122,120
121,122,121,122,121,122,122,121,121,122,120,121,121,120,121,120,121,123,121,121,120,121,121,120,121,119,121,121,121,121,121,121,120,122,120,121,121,121,122,119,121,122,121,121,120,121,121,121,121,122,120,121,121,121,121,120,121,123,121,121,121,121,121,121,121,121,120,121,121,121,121,121,120,122,120,121,121,121,121,121,121,121,121,121,121,121,121,121,121,122,121,122,121,121,121,120,120,121,121,122,121,120,121,120,121,123,122,122,122,121,122,121,120,121,121,122,121,121,121,120,120,121,121,122,121,121,122,120
121,122,121,121,121,121,121,121,120,121,121,121,120,121,121,121,119,120,120,122,122,121,121,119,121,122,122,122,121,120,122,121,121,122,121,121,121,121,121,121,119,119,121,122,121,120,121,120,121,123,122,122,121,121,120,120,120,121,121,122,120,120,121,120,119,120,120,121,121,121,121,119,121,122,121,122,121,120,120,121,121,123,122,123,121,121,121,121,122,122,120,122,121,121,122,121,120,120,121,122,121,121,122,121,119,121,121,122,121,121,121,120,120,122,120,121,121,121,121,120,121,121,120,121,121,121,122,120
121,120,121,122,121,121,122,121,121,122,122,122,121,121,121,120,120,119,119,121,121,121,121,121,120,123,122,122,121,121,121,121,121,121,121,122,122,122,121,120,120,121,120,121,121,121,121,121,121,121,121,122,121,121,122,120,121,121,121,122,121,121,121,121,121,121,120,122,121,121,122,120,121,122,120,121,121,121,122,121,119,120,121,122,121,120,120,120,120,120,121,121,121,121,121,120,121,122,121,122,121,120,121,120,120,121,121,122,121,121,121,119,121,122,121,122,121,121,122,120,120,121,121,122,121,121,121,120
121,122,122,122,122,121,122,121,121,123,121,122,120,121,121,121,120,120,120,121,121,121,121,121,120,121,120,121,121,121,121,121,121,122,122,123,122,121,121,121,121,121,120,121,121,121,121,120,120,121,121,122,121,122,122,120,121,121,122,122,121,122,121,119,120,120,120,121,121,121,121,120,119,119,119,120,120,121,121,120,120,122,121,122,121,121,121,120,121,121,121,122,122,122,121,121,121,121,120,121,121,121,122,120,121,122,120,121,120,121,121,120,119,119,120,122,121,121,121,120,120,121,120,121,121,121,122,120
120,121,121,122,121,121,122,121,121,121,121,122,122,121,122,121,121,122,121,121,121,121,121,121,120,120,121,122,121,121,121,120,120,122,120,122,121,121,122,120,121,121,121,122,122,122,121,120,120,121,121,122,121,120,121,120,121,121,121,122,121,120,121,120,121,122,122,122,121,120,121,121,121,123,122,122,121,120,121,121,120,120,120,122,121,120,121,120,119,120,121,121,121,121,121,119,121,123,121,121,121,121,121,122,122,123,122,122,121,121,121,121,121,121,120,121,121,121,121,120,120,120,121,121,120,121,121,120
120,122,121,122,122,121,121,119,121,121,120,121,121,121,122,120,121,122,121,122,122,122,122,121,121,121,120,121,121,121,122,121,121,122,122,122,121,120,120,120,121,122,121,122,121,121,121,121,120,122,122,122,121,120,121,121,121,122,121,123,122,120,120,120,120,122,121,122,121,120,121,120,121,122,121,121,120,121,121,121,120,121,120,121,121,121,121,120,121,123,122,122,122,122,123,120,121,122,121,122,121,120,121,120,122,123,122,122,121,121,121,121,121,122,122,123,121,121,121,120,117,118,118,121,121,121,121,120
119,120,120,120,120,120,121,120,122,123,122,122,122,121,122,120,122,123,122,122,121,120,121,120,120,121,122,123,122,121,121,121,121,122,121,122,122,121,122,121,121,121,121,121,120,120,121,121,120,121,121,122,121,121,120,119,121,122,121,122,121,120,121,120,121,122,122,122,121,121,121,121,120,120,121,122,122,121,122,120,120,123,121,122,121,121,120,119,120,120,121,121,121,121,121,119,121,121,121,122,121,120,120,120,121,124,122,122,121,121,122,121,120,117,120,121,121,121,121,121,119,121,120,121,120,121,121,121
120,123,122,121,121,121,121,120,121,121,121,121,121,121,121,121,121,121,120,121,121,121,122,121,120,121,121,121,121,121,122,120,121,122,120,121,121,121,122,120,121,122,121,122,121,120,121,121,120,121,121,122,121,120,121,120,121,121,120,120,121,121,121,120,120,122,121,122,121,120,120,119,121,121,120,121,121,122,122,120,121,122,122,122,121,121,122,121,120,121,120,122,121,121,121,120,121,122,122,122,121,120,121,120,120,123,121,122,121,121,120,120,119,118,118,120,121,121,121,120,120,122,122,122,121,121,121,121
122,123,120,122,121,121,122,121,121,121,120,121,121,121,122,121,120,121,120,121,121,121,121,121,121,122,121,122,122,121,122,121,121,122,120,121,121,121,121,121,121,124,121,122,121,121,121,120,120,120,121,122,121,120,121,119,120,121,120,122,121,121,121,119,121,121,121,122,121,121,122,120,120,121,121,122,122,120,120,120,120,121,121,122,121,121,121,120,121,121,120,121,121,121,121,119,121,122,122,122,122,121,120,121,120,121,119,121,121,121,121,120,119,119,120,122,121,121,120,120,120,123,122,122,121,121,121,120
122,122,121,122,121,122,122,121,122,121,120,121,121,121,121,121,120,121,120,121,121,121,122,120,120,120,121,122,121,121,120,120,120,122,121,122,122,122,122,120,121,122,121,121,121,121,121,121,121,122,121,122,120,120,121,120,121,122,121,121,120,121,121,120,120,121,121,121,121,121,122,121,120,121,121,122,121,122,121,120,121,122,120,121,121,121,121,120,121,125,122,123,121,120,121,120,119,118,120,121,121,121,121,120,119,120,120,122,121,120,120,119,121,123,122,122,121,121,122,120,120,121,121,122,121,121,121,120
120,121,121,122,122,121,120,120,121,122,121,122,121,121,121,120,120,121,121,123,121,121,121,121,120,122,121,122,121,120,120,121,120,121,120,122,121,121,122,120,121,123,121,122,122,122,121,121,120,121,121,122,121,120,121,120,120,120,121,122,121,121,122,120,119,121,120,121,121,121,122,119,121,122,122,121,121,121,121,120,121,122,120,121,120,121,121,120,121,122,121,121,120,121,121,121,121,122,122,122,121,120,120,120,120,121,121,121,121,121,121,120,121,122,121,122,121,122,122,121,121,122,123,122,121,122,121,120
118,118,118,120,121,121,121,121,119,119,120,122,121,121,120,119,122,124,121,121,121,121,121,121,122,123,122,122,122,122,122,119,121,119,120,122,122,121,121,120,120,123,120,121,121,121,121,120,119,119,120,122,121,121,122,120,121,122,120,121,121,121,121,121,121,121,120,122,121,121,122,120,120,121,121,122,121,121,121,119,120,121,121,122,122,121,120,120,120,121,121,122,121,121,120,120,121,122,121,122,121,121,122,120,119,121,121,122,122,121,122,120,120,121,121,122,121,121,121,120,121,122,121,122,121,121,121,120
122,125,121,121,121,121,121,121,118,116,118,121,121,120,121,120,119,121,122,121,121,121,121,120,122,124,122,121,120,121,121,121,121,122,121,123,122,121,120,120,120,121,120,122,121,121,122,121,121,121,121,122,121,120,121,120,121,120,120,121,121,121,122,120,120,123,121,122,121,120,120,120,120,121,121,122,121,121,122,121,121,122,121,121,121,121,122,121,121,122,121,122,122,121,120,119,119,121,121,122,122,121,122,120,120,120,120,121,121,121,121,120,121,122,121,121,120,121,121,120,120,121,121,122,121,120,120,120
120,122,121,122,122,122,121,120,120,120,121,122,121,120,121,121,120,121,119,121,121,121,122,121,121,122,121,121,121,121,121,121,121,123,122,122,120,121,121,121,120,121,121,122,122,120,121,120,121,124,122,123,122,121,122,121,120,122,121,122,121,121,122,120,118,119,120,122,121,120,121,119,120,121,121,121,121,121,121,120,122,123,122,122,120,121,121,121,121,122,122,122,121,121,121,121,121,122,122,122,121,120,121,120,119,120,120,122,122,121,121,119,119,120,120,122,121,122,121,119,121,122,121,122,122,121,122,121
121,122,121,121,121,121,121,120,120,121,121,122,121,120,121,121,120,122,121,122,121,121,120,119,121,121,121,122,122,122,122,121,120,122,120,122,121,121,121,120,120,121,122,122,121,120,121,120,121,123,122,122,120,121,121,120,120,121,120,121,121,121,121,121,121,121,120,121,121,121,121,120,120,122,121,122,121,122,121,120,120,122,121,121,120,121,121,120,121,122,122,121,121,120,121,120,120,121,121,122,122,122,121,120,121,122,121,121,120,120,121,121,121,121,121,122,121,121,121,121,121,123,122,122,121,120,121,120
121,121,122,122,121,121,122,120,120,122,121,122,121,121,121,120,121,123,122,122,121,121,121,121,120,120,120,122,121,121,121,120,120,120,121,122,121,121,121,120,121,123,122,123,121,120,121,120,120,120,120,122,122,122,122,120,120,121,121,121,120,121,121,121,121,122,120,121,121,121,122,121,121,122,122,122,120,120,120,120,121,122,121,122,121,121,122,120,121,124,120,121,120,121,121,120,119,120,122,122,122,121,120,119,121,122,121,122,121,121,122,121,121,121,120,121,120,121,121,121,121,122,121,121,121,121,121,121
121,121,121,122,121,121,122,120,120,121,120,122,121,121,122,121,121,122,121,122,121,120,121,120,121,121,122,122,121,121,121,120,120,121,121,122,121,120,121,120,120,121,121,122,121,120,120,120,121,122,122,122,121,121,121,121,121,122,121,122,120,121,121,120,120,121,121,122,121,122,121,120,121,122,121,121,121,121,122,121,120,121,121,122,122,121,120,119,121,122,121,121,121,121,121,121,121,122,122,122,121,121,121,121,120,121,121,122,121,121,121,119,120,120,121,122,121,121,121,120,121,122,121,122,121,121,122,121
121,123,121,121,121,121,121,121,121,120,119,121,121,121,121,121,119,121,122,122,121,120,121,120,121,122,121,122,121,121,122,120,121,122,121,121,120,121,121,120,119,120,120,122,122,121,120,119,121,123,121,122,121,121,121,120,121,122,122,123,122,121,121,121,119,121,121,121,121,121,121,120,121,122,121,122,120,121,121,120,119,121,121,122,121,121,121,120,121,122,121,121,121,121,122,121,120,121,121,122,121,121,121,120,120,122,120,122,121,121,121,121,120,120,121,121,121,121,122,121,120,120,119,121,121,121,121,120
120,124,122,122,120,121,121,121,121,120,120,122,121,121,122,121,120,121,121,122,121,121,122,120,120,122,121,122,121,121,121,120,121,121,121,122,122,122,122,121,121,122,121,122,122,121,121,119,121,122,121,121,120,121,121,120,119,119,120,122,121,121,121,120,121,122,121,122,122,122,121,120,121,122,122,122,121,121,121,119,119,120,120,121,121,121,122,120,120,121,121,122,121,121,121,120,121,122,120,121,121,121,121,120,121,122,121,121,121,121,121,121,121,122,122,122,121,121,121,120,121,121,121,122,121,121,120,120
119,121,121,122,121,120,121,120,120,119,120,121,121,121,121,121,121,123,121,122,121,120,121,121,122,121,122,123,121,121,121,120,122,121,120,121,121,121,122,121,120,121,121,122,122,122,121,120,119,120,120,122,121,121,120,120,121,123,121,122,122,121,121,120,120,122,122,123,122,121,121,119,120,121,121,122,122,122,122,121,120,121,121,122,121,121,121,120,119,121,121,122,122,122,121,120,120,120,120,121,121,121,121,121,120,121,121,122,121,120,120,119,122,124,121,121,121,121,122,121,120,120,122,122,122,121,121,119
120,122,121,122,122,121,121,119,122,121,120,122,121,121,122,121,120,123,121,122,122,122,122,121,119,119,121,122,121,121,121,121,121,122,121,121,121,121,121,121,121,122,121,122,122,121,121,119,121,122,122,121,120,121,121,120,120,120,121,122,121,120,121,120,120,123,121,122,122,121,121,120,121,122,122,122,120,120,121,121,121,122,121,121,120,121,121,120,120,120,120,122,122,121,120,120,120,121,120,121,121,121,121,120,121,122,121,121,121,121,121,120,121,122,121,121,120,121,121,121,121,121,121,122,122,121,121,121
120,121,121,122,120,120,121,120,120,121,121,122,121,122,121,120,121,121,120,121,121,121,121,121,120,121,122,122,121,120,121,120,121,123,121,122,122,122,121,121,121,122,121,121,121,121,121,120,121,121,121,122,120,120,121,120,120,123,121,122,122,121,121,119,120,121,121,122,122,121,121,120,120,120,120,122,121,121,121,120,121,121,120,121,121,121,121,121,120,121,121,122,121,120,121,120,120,121,121,121,121,121,122,120,120,121,121,122,122,121,122,120,120,122,121,122,122,122,121,119,120,121,121,122,121,120,121,120
121,122,121,122,122,121,120,121,120,121,121,122,121,121,120,120,120,121,121,122,121,120,120,119,121,121,121,122,122,122,122,120,121,122,122,122,121,121,121,121,120,121,121,122,122,122,121,121,120,123,120,121,121,121,121,120,120,120,121,122,122,121,121,120,120,121,121,122,121,120,121,120,122,123,122,122,121,120,121,121,120,121,120,122,121,121,122,120,120,121,120,121,121,121,122,120,121,122,121,121,121,121,122,121,120,120,120,122,121,121,122,121,120,121,120,121,121,121,121,120,120,121,121,122,120,120,121,120
121,122,121,121,120,121,121,121,121,122,122,122,122,121,121,120,121,123,121,123,122,121,122,121,120,120,121,122,121,122,121,120,119,120,120,121,121,121,121,120,119,119,120,121,121,121,122,120,121,123,122,122,121,122,122,121,120,121,121,122,121,121,121,120,120,122,121,122,122,121,121,120,120,120,121,122,121,121,120,120,120,123,121,122,122,121,121,120,120,121,121,122,122,121,120,120,119,121,120,121,121,121,121,120,121,121,120,122,122,121,121,119,121,121,120,121,121,121,121,120,121,122,121,122,121,121,120,120
121,122,122,122,120,120,121,120,121,121,120,121,121,121,122,121,120,121,120,121,121,121,122,120,121,122,121,121,121,121,121,121,121,121,120,121,121,121,122,121,120,122,121,121,121,121,122,120,121,121,120,122,121,121,122,121,121,122,121,121,121,121,122,121,120,122,121,122,122,120,121,120,120,121,120,122,121,122,122,119,121,121,120,121,121,121,121,120,120,123,121,121,121,121,122,121,120,119,120,122,122,122,121,120,120,121,121,122,121,120,121,120,121,122,122,123,121,121,121,120,121,122,121,121,120,121,121,121
121,122,122,122,121,121,122,121,121,122,121,121,120,121,122,120,121,122,121,121,120,121,121,120,121,121,122,122,121,120,121,120,120,121,120,121,120,120,121,121,120,121,120,121,121,121,121,120,121,122,122,122,121,121,121,120,121,122,121,122,122,121,121,120,121,121,121,122,121,121,122,120,121,121,121,122,122,122,122,120,121,121,121,121,121,121,121,120,121,122,120,121,121,121,121,121,121,121,120,121,121,120,121,121,122,121,120,121,121,121,121,121,121,122,122,122,121,121,121,120,121,122,120,121,121,121,121,120
121,121,120,121,121,122,122,120,121,122,122,122,121,120,121,120,120,121,121,122,121,121,120,120,121,122,121,121,121,121,121,121,120,121,120,121,121,121,122,120,120,121,121,122,121,121,122,121,121,123,121,122,121,121,122,120,121,121,120,121,120,121,121,121,120,121,121,122,122,122,121,119,120,121,121,122,122,121,121,120,121,121,120,121,121,121,121,121,119,119,121,122,121,121,121,119,119,123,121,122,120,120,120,119,120,120,121,122,121,121,121,120,121,122,121,122,121,122,121,120,120,121,121,122,121,121,122,120
121,121,120,121,121,121,121,121,120,122,121,122,122,122,121,120,119,119,119,121,121,121,121,119,120,122,121,122,122,121,121,121,121,122,122,123,121,121,121,120,121,123,122,121,121,121,121,121,120,121,120,122,121,121,122,120,120,121,120,122,121,121,122,121,121,121,121,122,122,122,122,121,120,121,121,122,121,121,121,119,120,121,121,122,120,121,121,120,120,121,121,122,121,121,120,120,121,122,121,122,122,122,122,120,121,122,121,121,120,120,121,120,120,122,121,122,121,122,121,120,119,121,121,122,121,122,121,120
120,121,121,122,121,121,122,120,121,123,122,122,120,120,121,120,121,124,121,123,121,121,121,121,120,119,120,122,122,121,120,120,120,120,121,121,121,121,121,121,120,121,121,122,121,121,122,120,122,122,120,121,121,122,121,122,120,121,121,122,121,121,121,120,121,122,121,121,120,120,121,120,121,122,122,122,121,121,122,121,121,122,121,121,120,121,121,120,121,121,121,121,121,121,121,121,120,121,121,122,121,122,121,120,120,121,121,122,122,121,122,121,120,121,120,121,121,121,121,120,121,122,121,121,121,121,122,121
120,121,121,122,121,121,121,120,120,119,120,122,121,121,121,119,121,124,120,121,121,122,121,121,121,121,120,122,121,121,121,120,119,119,121,122,121,121,122,121,121,123,121,121,121,120,121,120,121,121,122,122,121,121,120,120,121,122,121,122,121,121,122,121,121,121,120,122,121,121,122,121,121,121,121,122,121,120,121,120,121,122,120,121,121,121,121,120,121,122,120,121,121,121,121,121,120,121,121,122,121,121,121,120,121,121,121,121,121,121,122,121,121,122,121,122,121,121,122,121,120,121,120,121,121,121,121,120
120,121,122,122,121,120,120,120,121,121,120,122,121,122,121,120,121,122,121,122,121,120,121,120,121,121,121,121,120,121,121,121,120,121,121,122,121,121,121,119,121,121,121,121,121,121,121,120,121,124,122,122,120,120,121,120,120,121,121,122,122,122,122,121,120,119,120,121,121,121,121,120,121,122,121,122,121,121,121,121,120,121,121,122,121,121,121,120,120,121,121,122,121,121,120,120,120,122,121,121,120,121,122,120,121,122,120,121,121,121,122,120,121,121,120,121,121,121,121,121,120,121,122,122,121,120,121,120
120,121,121,122,121,121,120,119,121,122,122,122,121,120,121,120,121,122,122,122,121,120,121,120,120,121,121,122,122,121,121,120,120,121,122,122,121,121,121,120,122,122,121,121,121,121,121,121,121,121,120,121,120,121,121,121,121,124,122,122,120,120,121,120,120,121,121,122,122,121,121,119,120,122,121,121,120,120,121,120,120,121,121,122,121,120,120,119,121,122,120,121,120,121,121,120,121,121,121,122,121,121,121,119,119,121,121,122,121,121,120,119,120,120,120,122,121,121,122,120,121,124,121,121,120,121,121,121
120,119,121,122,121,121,120,120,121,122,122,122,121,120,121,120,121,120,120,121,121,121,122,121,121,121,121,122,121,121,122,121,121,121,121,122,121,120,120,120,119,120,121,122,122,121,121,119,121,122,121,121,120,121,121,120,121,121,121,122,121,121,122,121,121,123,120,121,121,121,121,121,118,119,120,122,121,121,121,119,121,121,121,122,122,121,122,120,121,122,122,121,121,120,121,121,120,121,121,123,122,121,120,118,120,122,121,121,121,121,121,123,120,121,121,122,121,122,121,119,121,122,121,122,120,120,121,120
121,121,120,121,121,121,121,120,119,119,120,121,121,121,121,120,121,122,121,122,121,120,121,120,121,122,122,122,122,121,121,121,120,121,120,121,121,121,122,121,121,122,121,121,120,121,121,121,119,120,120,122,121,121,121,119,121,121,122,122,122,121,122,121,121,122,121,123,121,120,121,121,119,121,120,122,121,122,122,119,117,118,120,121,121,121,121,120,121,122,122,122,122,121,121,120,121,125,121,121,121,121,121,121,120,120,121,122,122,121,121,120,119,120,121,121,121,121,121,120,121,121,120,122,121,121,121,120
120,121,120,122,121,121,122,120,119,121,121,122,122,121,122,120,120,122,121,122,121,120,121,120,120,121,120,121,121,121,121,121,119,121,121,122,121,121,122,120,120,120,120,122,122,120,121,119,121,122,121,121,120,121,122,121,120,121,121,122,121,122,122,121,121,122,122,122,122,121,121,120,119,120,121,122,122,122,121,120,121,123,122,121,120,121,121,121,120,119,120,122,121,121,122,121,120,121,121,122,122,121,121,120,122,122,120,121,121,121,122,121,121,123,120,121,121,121,121,121,120,120,120,121,121,121,121,121
120,121,121,122,121,121,121,121,120,122,121,122,120,120,120,120,121,121,121,123,121,120,121,120,120,122,121,122,122,121,121,120,121,121,120,121,121,121,121,121,121,121,121,122,121,122,122,122,121,121,121,122,121,120,121,120,120,121,121,122,121,121,122,120,120,121,121,122,121,121,121,119,121,123,122,121,121,121,122,121,119,119,120,121,121,121,121,120,120,121,120,121,121,121,121,121,121,120,121,122,122,121,121,120,121,123,121,122,121,120,120,120,119,120,121,122,121,121,121,119,121,121,121,122,122,121,120,120
121,122,121,122,121,120,121,120,120,123,121,122,122,121,121,119,120,122,121,122,121,122,121,120,121,122,121,121,120,120,121,121,119,120,121,122,122,121,121,120,121,123,121,121,121,121,121,120,122,122,122,122,121,122,122,121,120,122,121,122,120,120,121,120,121,122,122,122,121,121,121,120,120,121,120,122,121,121,121,119,120,121,121,122,121,121,121,120,121,122,120,121,121,121,121,121,121,122,121,122,121,120,121,121,120,121,121,122,122,121,121,120,121,120,121,121,121,121,121,121,121,124,122,122,121,121,122,121
120,121,121,122,121,121,121,120,121,121,121,122,122,121,121,120,121,122,121,121,121,121,121,121,120,122,121,121,120,121,121,120,121,121,121,121,121,121,122,121,120,122,120,122,121,120,120,120,119,120,121,122,121,120,119,119,122,123,121,122,121,122,122,121,121,121,121,122,122,122,122,120,120,120,120,122,121,121,122,120,120,122,121,122,121,121,120,119,120,121,120,121,121,121,121,120,121,122,121,121,121,121,122,122,119,120,121,122,122,122,121,119,120,121,120,121,121,121,121,121,120,121,122,122,121,121,120,120
120,121,120,121,121,121,121,120,120,120,121,122,121,122,121,119,120,123,121,122,121,121,121,119,120,120,121,122,121,121,122,120,121,121,121,122,122,121,121,121,121,122,121,122,122,121,121,120,121,121,120,121,121,121,121,121,121,122,121,122,121,121,122,121,121,122,121,122,121,120,121,120,120,121,121,122,121,121,121,121,120,121,121,122,121,121,121,119,120,121,121,122,121,122,121,120,120,122,122,122,121,121,120,119,120,123,121,122,121,120,120,120,119,119,121,122,121,120,120,120,120,122,121,122,122,122,121,119
121,123,121,122,121,121,121,119,121,122,121,121,121,121,121,121,122,123,121,122,122,122,121,121,120,121,120,122,121,121,121,120,120,121,120,121,121,121,121,120,121,122,121,121,120,120,121,121,121,122,122,123,122,121,122,121,121,121,121,122,120,121,122,120,121,121,120,121,121,121,122,121,121,121,120,121,121,121,121,120,121,121,120,121,121,121,121,121,121,123,122,122,121,121,121,119,120,120,120,122,121,122,121,120,119,120,121,122,120,120,121,120,120,121,121,122,121,121,120,119,122,123,122,123,122,121,121,119
121,121,121,122,122,121,121,120,121,122,121,122,121,121,122,124,120,121,121,121,120,121,121,119,121,121,121,121,120,121,121,120,120,122,120,121,121,121,121,120,119,121,121,121,120,120,121,119,121,121,121,121,121,121,122,121,121,123,122,122,121,120,121,120,120,120,120,122,122,121,121,120,117,121,121,122,121,120,121,120,124,121,120,121,120,121,121,121,121,123,122,123,122,121,121,121,120,121,120,121,121,121,103,115,108,121,121,122,121,122,122,119,130,122,122,122,120,119,121,124,111,120,120,122,121,120,121,118
125,121,122,121,121,131,107,113,116,122,122,122,122,123,107,118,108,119,119,121,119,115,115,118,128,122,121,124,124,120,132,122,136,123,122,123,122,132,120,123,108,120,120,121,121,116,119,116,119,119,119,120,118,112,118,118,122,122,121,122,123,133,120,119,118,121,121,122,123,119,129,119,122,120,120,121,120,115,121,123,120,119,117,120,114,105,110,113,110,120,122,124,129,126,129,120,172,130,122,120,115,102,126,149,101,120,122,123,123,119,118,113,124,120,121,122,122,122,128,119,112,117,118,119,116,105,112,117
117,121,121,121,119,118,120,119,127,123,122,124,122,111,118,125,143,129,125,126,133,165,126,131,116,121,121,122,120,112,125,124,113,119,119,119,114,86,87,112,121,123,123,126,131,135,144,136,100,116,117,118,116,111,98,111,157,124,122,122,126,124,125,131,105,121,123,123,115,99,125,115,115,118,117,118,115,117,87,113,117,121,121,119,133,173,133,119,121,124,118,118,118,112,130,139,113,119,123,124,121,118,118,119,136,121,119,125,130,126,119,123,120,124,124,128,145,163,134,108,122,125,124,122,115,111,111,126
124,124,123,121,113,114,130,133,125,122,122,144,112,93,111,105,119,114,113,113,110,161,122,128,111,119,118,111,138,147,131,136,120,121,122,123,107,98,76,93,126,126,124,121,119,128,124,125,124,121,117,100,104,65,117,130,118,122,123,137,105,114,88,122,122,117,117,107,120,99,108,138,119,116,118,123,119,123,72,90,123,117,116,114,114,132,143,143,108,122,125,127,126,122,113,106,121,116,112,116,125,137,91,79,120,124,129,153,122,167,193,171,121,121,119,107,103,31,69,91,115,121,117,109,132,231,136,94
120,113,120,127,132,120,122,145,108,116,113,105,95,67,139,110,143,132,132,139,119,151,119,125,86,113,118,132,117,130,95,104,105,118,123,139,150,114,161,94,128,126,122,142,131,157,145,144,129,126,125,94,110,117,118,117,128,123,121,139,120,134,137,126,120,119,126,169,147,146,102,122,127,120,120,104,117,116,152,142,103,116,107,61,78,76,109,107,131,121,117,121,115,101,128,116,139,123,125,132,156,58,135,162,86,101,110,115,120,113,84,102,111,130,128,132,102,115,140,132,146,130,124,134,129,185,156,118
115,119,117,115,113,96,134,133,115,128,124,122,125,112,143,147,139,121,129,112,107,90,127,131,118,122,122,120,160,133,97,112,119,124,128,139,145,67,132,88,122,120,106,28,97,119,176,119,122,120,124,156,129,94,82,68,124,121,119,97,106,132,165,147,114,122,121,122,117,107,131,110,115,119,118,115,109,59,113,141,131,124,128,131,123,183,168,157,109,122,117,114,104,81,115,137,136,128,126,144,132,85,140,118,127,120,118,124,105,65,118,122,96,116,116,110,128,183,136,125,140,132,134,148,152,161,145,144
136,124,113,54,102,186,112,116,125,128,132,140,126,115,123,146,116,123,122,120,121,102,131,93,122,114,117,101,104,130,151,37,121,118,116,128,138,73,125,0,115,123,123,136,116,102,122,0,110,124,123,123,138,131,102,0,118,119,116,119,149,137,162,0,120,110,110,140,91,68,54,0,119,127,131,144,139,179,229,0,120,123,127,143,141,127,154,0,138,122,126,153,188,149,126,45,117,121,116,111,96,104,124,78,123,123,122,117,110,95,134,96,117,121,122,116,107,123,110,107,120,122,120,120,112,95,125,112
120,122,123,149,128,122,112,115,112,121,122,119,116,97,100,118,143,114,111,109,134,77,113,118,132,130,127,133,126,118,154,118,107,118,119,141,149,97,51,120,112,119,113,84,99,93,138,119,119,121,131,199,157,156,84,120,110,120,119,107,111,101,130,119,141,119,120,123,118,84,133,119,109,118,112,120,130,101,107,140,117,121,129,138,153,134,80,112,123,126,124,118,115,111,120,117,119,120,114,97,110,134,101,118,116,128,124,124,132,134,118,119,127,112,119,131,119,91,117,119,102,115,116,127,122,102,92,121
127,128,127,158,133,123,136,119,120,123,120,115,116,161,121,119,115,118,117,122,122,85,135,119,119,124,124,121,138,107,83,120,118,124,124,124,113,117,87,120,130,116,115,129,142,111,130,126,105,116,119,109,111,114,101,117,123,125,124,135,113,69,64,134,117,127,129,165,174,161,180,134,129,115,114,102,111,157,147,126,110,116,111,98,95,82,94,130,126,123,123,123,136,144,92,134,125,122,124,128,128,108,144,146,130,120,122,136,149,112,106,123,117,124,124,118,114,168,141,133,118,113,117,134,120,108,53,127
114,124,122,114,113,99,132,97,119,119,120,126,145,133,126,119,115,121,123,132,131,119,120,120,127,118,119,117,116,76,98,128,114,125,118,101,102,204,173,92,123,121,126,135,149,114,127,109,118,123,122,97,106,144,144,116,127,125,124,119,119,117,90,108,95,120,120,140,125,115,101,114,165,120,119,113,128,125,112,118,101,119,114,126,108,99,103,119,115,125,128,126,124,119,95,120,125,121,118,103,115,143,185,118,122,130,129,136,130,131,87,120,120,119,120,119,110,99,107,120,135,120,124,128,122,120,135,119
111,126,124,127,111,94,97,121,129,122,120,126,102,151,166,119,111,121,124,160,147,115,92,121,139,126,122,102,111,137,122,120,110,116,120,115,114,106,115,120,117,119,119,112,110,94,135,119,121,123,123,122,108,112,151,120,120,121,118,110,109,133,119,120,145,120,122,132,127,127,125,120,126,127,122,122,123,112,114,120,102,115,121,112,136,105,118,120,115,119,112,76,90,65,117,120,109,128,130,140,121,152,146,119,150,113,119,110,103,153,129,119,109,120,124,104,109,93,135,119,123,122,121,145,142,148,115,121
118,127,129,119,107,108,123,119,119,116,111,104,96,104,95,120,112,114,117,101,90,51,113,121,120,128,126,141,140,138,129,120,131,122,126,154,150,184,155,119,145,123,117,92,92,93,128,120,107,118,118,121,109,115,125,120,123,123,127,123,124,122,134,120,118,119,117,116,121,118,122,121,104,117,117,135,160,95,114,121,130,121,119,116,116,105,124,120,113,124,120,93,89,97,132,119,124,126,129,154,168,217,150,119,124,114,117,112,124,98,114,120,118,118,115,107,110,109,95,121,121,130,132,151,135,126,134,119
121,125,125,104,108,98,46,122,115,116,121,130,123,150,150,120,141,126,123,119,124,125,151,119,128,126,124,157,128,117,127,120,107,119,122,119,118,182,122,120,128,115,111,111,107,130,122,119,111,119,121,129,143,145,102,120,119,131,128,157,139,166,154,119,141,118,117,114,110,137,105,121,103,114,119,106,121,119,129,120,122,124,121,135,157,115,110,120,129,128,128,136,127,140,141,119,126,127,128,116,117,146,145,119,107,116,122,136,124,112,98,121,133,125,120,136,137,99,133,120,114,121,123,103,122,150,126,119
119,120,121,137,121,104,107,121,110,122,122,126,131,167,138,119,137,120,119,111,109,111,118,120,109,124,124,110,99,128,135,120,144,127,125,119,120,133,174,119,109,120,123,123,115,111,118,120,131,122,119,114,129,100,148,120,114,120,123,126,120,124,77,122,124,121,120,113,117,118,137,120,105,118,117,123,125,102,68,121,143,125,125,124,115,113,140,120,112,116,118,107,99,114,113,120,125,126,123,115,100,120,154,119,108,114,116,114,119,100,79,121,121,125,119,99,114,133,143,120,127,128,127,140,127,101,92,121
112,115,123,154,136,100,28,122,126,125,126,120,117,130,134,120,111,121,118,113,113,111,102,121,126,120,117,109,98,107,121,121,115,123,121,119,120,145,135,120,122,119,125,112,130,167,133,119,122,116,113,107,112,87,99,121,110,123,126,157,133,122,99,121,127,124,118,96,106,137,162,120,118,123,124,150,135,96,83,121,117,116,116,113,111,111,85,120,123,121,121,122,140,119,141,120,122,122,123,116,112,116,97,121,122,124,126,120,120,102,107,120,117,118,115,118,131,145,94,120,117,119,114,101,100,115,106,121
120,121,126,128,155,180,146,119,119,118,118,110,112,106,141,120,119,123,120,116,122,106,89,120,126,122,120,103,100,123,110,120,126,125,125,120,128,148,141,119,131,126,121,119,111,67,106,121,114,126,125,127,118,151,141,120,119,122,125,137,134,127,113,121,117,120,123,121,112,133,136,120,132,118,117,117,116,106,120,120,121,128,130,140,121,117,135,119,117,123,121,121,119,105,92,120,122,119,119,112,116,97,65,121,128,126,126,126,128,195,173,119,120,122,120,107,112,109,132,120,121,127,134,169,136,121,137,120
117,117,116,121,124,118,120,120,116,122,124,125,128,139,117,120,123,125,124,119,115,110,151,119,112,123,120,116,123,125,131,120,129,118,119,119,109,131,106,120,132,121,116,108,105,91,101,121,101,121,123,123,122,129,130,120,128,120,115,103,107,98,127,119,114,121,118,110,97,137,74,130,114,124,122,123,117,141,152,125,123,117,118,113,112,106,117,142,131,119,113,115,114,120,120,120,121,126,129,132,128,141,116,153,118,120,118,122,129,120,126,200,116,119,116,109,104,109,118,190,121,122,119,95,99,124,93,176
118,118,118,136,169,112,105,202,120,118,120,135,122,188,129,227,121,125,121,127,123,139,119,193,111,121,119,122,125,114,131,193,108,120,117,107,102,101,98,149,145,120,122,145,149,130,105,98,110,118,117,101,106,113,125,48,121,121,122,119,120,107,124,31,117,119,119,120,123,121,117,2,132,122,123,121,125,100,98,0,118,121,118,115,123,151,121,32,128,128,125,134,138,133,116,75,110,117,118,134,138,79,118,97,123,121,120,119,115,113,93,108,116,123,121,130,131,122,169,112,115,120,117,119,119,123,161,116
110,122,124,121,119,95,120,118,135,119,118,116,119,123,130,118,115,119,119,114,118,142,98,120,120,126,126,133,125,129,141,119,124,122,120,125,124,150,135,119,113,121,117,93,97,115,102,120,124,117,119,117,128,113,140,119,116,122,121,129,133,121,101,120,132,116,119,126,112,132,144,119,116,119,116,108,105,113,112,120,119,121,119,115,123,126,0,122,120,120,121,119,121,92,112,121,129,125,127,132,132,198,167,119,110,122,123,156,126,98,89,120,108,119,123,127,118,109,139,120,158,122,118,117,104,123,141,119
112,122,123,124,124,117,123,120,118,122,123,124,123,126,140,120,118,121,119,121,109,111,129,120,116,117,117,99,96,91,93,121,128,121,118,104,138,126,126,120,108,120,116,121,113,132,93,121,142,122,122,120,115,119,114,120,112,118,120,105,114,124,116,120,124,124,121,122,119,103,111,120,115,122,120,122,127,135,94,121,117,121,121,103,101,112,140,119,120,121,121,140,124,122,113,121,146,123,123,123,121,109,116,120,112,120,117,104,112,116,109,121,119,121,123,138,132,109,122,120,120,124,119,111,114,110,107,120
120,120,121,132,126,114,121,120,114,120,121,122,122,114,111,120,135,121,122,122,124,125,133,120,112,122,120,100,109,117,113,120,118,122,121,120,121,108,129,120,123,122,124,124,125,131,93,121,115,120,118,120,119,127,117,120,134,122,121,115,111,119,129,145,125,124,119,104,98,96,110,156,122,125,129,141,133,148,165,161,108,116,117,110,114,125,123,152,151,127,121,98,104,152,152,173,113,115,122,146,142,91,98,200,119,120,118,109,134,130,127,222,117,123,124,138,123,157,139,167,136,123,121,119,119,127,130,123
111,125,121,119,126,133,128,111,107,116,123,125,129,132,143,130,150,121,117,120,121,124,128,175,120,125,125,139,133,149,104,192,116,122,118,90,95,113,125,158,111,119,122,118,109,145,145,80,136,120,120,119,116,123,119,24,117,122,119,122,125,132,104,0,119,121,119,124,120,114,119,12,122,122,120,117,115,105,108,33,112,118,119,124,135,126,135,59,122,118,112,95,95,120,121,89,117,122,125,141,129,122,106,104,136,122,120,121,127,116,121,111,124,123,120,108,123,144,154,114,118,125,125,128,124,114,148,117
103,116,116,116,117,118,89,120,123,118,120,125,134,138,78,119,138,129,126,133,129,121,140,119,110,119,119,112,114,124,99,121,120,118,116,106,114,108,116,119,116,123,126,127,110,99,120,119,118,120,117,97,112,85,112,120,118,119,121,128,127,95,96,120,114,122,120,117,117,119,129,121,118,122,123,134,136,127,129,120,122,122,122,115,113,144,176,119,116,121,119,124,134,119,139,119,133,126,125,102,118,138,103,121,113,116,118,126,112,115,124,120,119,122,119,113,113,104,108,120,116,120,121,112,101,116,121,120
119,121,120,122,122,89,125,120,98,119,114,112,108,95,135,119,131,115,115,115,106,121,80,120,112,120,125,129,115,91,88,120,117,124,124,149,114,108,114,125,122,125,123,118,118,139,143,119,120,118,118,108,113,114,117,140,133,126,123,134,125,125,130,201,118,118,120,119,116,130,154,235,107,118,113,101,107,117,111,230,116,123,124,133,143,92,124,233,139,125,123,116,111,133,138,209,119,121,122,115,121,109,97,216,119,117,119,125,128,115,154,241,118,124,128,150,134,117,85,240,112,117,116,123,126,124,121,242
120,123,119,110,110,105,85,241,104,122,121,140,145,144,156,242,154,122,128,125,130,88,83,214,107,120,118,122,125,86,109,184,122,122,122,118,124,132,148,208,124,126,128,141,137,161,159,155,120,118,118,124,124,119,88,0,135,123,119,121,126,138,108,0,113,122,121,120,115,115,125,0,122,124,123,128,116,109,141,0,128,123,125,122,128,114,122,0,119,123,123,132,135,121,144,0,126,124,127,135,125,122,127,0,116,118,118,113,113,96,96,0,120,123,123,124,105,116,101,63,128,118,117,116,105,117,105,97
103,123,124,124,124,133,131,87,132,119,116,117,109,100,138,35,109,121,124,140,145,158,105,55,127,123,116,103,101,106,129,75,108,115,120,122,117,117,109,47,121,121,119,116,100,107,136,79,116,123,124,123,123,141,116,98,124,118,117,125,119,108,109,109,116,123,121,109,114,124,113,113,130,120,121,126,115,107,122,115,108,116,113,103,105,158,105,118,121,121,127,136,135,133,143,118,140,130,128,133,129,136,85,120,116,121,120,120,110,121,138,119,114,114,116,120,121,101,122,120,120,123,123,118,123,153,137,120
123,123,121,125,132,121,118,120,107,118,114,108,105,107,104,120,139,119,117,111,112,106,124,120,112,122,124,122,125,111,106,120,135,121,121,120,123,112,160,119,122,123,126,146,137,144,124,119,118,122,117,113,115,112,125,120,122,122,122,127,121,107,123,119,118,120,122,130,121,119,110,120,111,122,124,134,135,148,138,120,128,119,114,117,120,100,123,120,111,120,121,122,119,104,118,120,128,120,118,114,112,122,132,120,115,122,123,126,134,131,77,120,114,117,119,114,114,145,141,119,123,118,110,96,105,124,88,121
118,121,123,141,131,96,66,122,119,122,121,115,113,107,131,120,122,125,125,147,183,115,121,121,126,120,120,120,111,91,157,120,121,122,122,119,126,128,140,119,117,122,121,117,107,130,145,119,135,118,120,120,127,112,125,120,115,120,126,138,129,115,120,120,113,119,117,125,123,145,118,120,131,126,122,125,124,146,146,119,121,121,125,131,123,128,103,137,120,116,116,92,104,111,113,152,108,125,127,148,140,150,146,158,147,125,123,116,114,113,148,141,108,121,123,123,111,70,92,122,123,120,120,118,121,130,138,148
125,124,125,114,119,133,195,91,124,124,124,132,119,102,95,63,111,124,121,129,118,109,121,86,121,115,122,125,150,136,155,103,116,120,119,126,118,113,87,113,123,126,129,134,124,126,173,115,124,119,113,104,105,91,106,119,115,118,116,102,112,134,123,118,123,123,124,137,127,122,97,120,124,119,117,113,112,112,125,119,115,121,116,107,102,190,160,119,125,117,115,104,110,108,127,120,118,119,120,122,113,109,91,121,120,124,120,130,129,88,98,120,127,119,119,115,113,130,174,119,130,122,119,115,120,165,178,125
111,123,124,122,115,103,111,146,114,116,115,122,120,102,123,136,124,123,121,108,118,146,150,129,108,124,122,118,128,145,84,143,134,115,118,118,113,113,73,123,110,121,119,114,115,111,109,112,127,125,125,140,136,132,108,114,123,127,126,108,104,120,93,104,107,116,116,114,130,79,131,163,138,131,130,148,167,126,152,242,109,118,117,110,100,119,106,242,128,124,125,123,117,91,138,242,124,120,116,124,128,75,105,242,118,122,121,130,156,123,160,242,123,125,124,134,118,113,131,242,124,121,121,135,102,125,144,241
109,117,115,101,101,134,142,242,137,120,122,122,116,144,158,241,121,122,117,106,104,59,135,242,116,122,121,120,122,145,150,241,113,120,122,136,107,135,109,229,127,120,119,117,117,91,111,149,124,126,130,135,162,241,184,128,105,118,118,116,123,99,82,124,113,120,118,100,96,97,105,122,133,124,123,129,116,111,108,122,115,123,122,117,126,150,139,121,111,116,115,146,138,81,129,121,133,119,123,115,108,87,78,121,126,127,124,127,130,119,159,120,115,120,122,131,118,100,92,121,139,122,121,116,119,95,124,121
117,120,119,117,138,157,142,120,120,128,129,131,143,121,125,121,125,119,116,116,113,105,110,121,120,121,119,98,98,136,127,120,119,119,121,124,121,79,116,120,119,124,124,115,117,129,99,121,115,122,123,120,117,99,88,121,128,122,118,114,117,103,111,121,122,121,121,120,129,100,110,121,122,125,124,127,135,135,181,119,117,122,122,150,137,120,117,120,105,123,122,114,104,76,119,121,146,122,121,112,125,183,148,120,114,119,122,132,137,141,117,121,122,121,119,122,118,102,144,120,121,123,123,119,127,162,150,120
131,126,124,131,128,103,108,121,121,122,120,119,125,153,59,122,122,125,124,139,124,117,145,119,123,121,120,114,123,104,150,119,118,119,124,123,135,145,85,121,120,124,122,123,129,129,147,120,121,125,125,127,125,141,123,120,113,119,118,119,113,95,93,121,133,125,122,116,104,142,161,119,117,118,119,104,118,118,119,120,104,116,115,122,115,113,100,120,137,126,122,109,124,145,131,120,118,126,129,148,145,164,129,120,132,122,121,118,122,119,143,120,116,122,121,122,117,121,148,120,135,122,122,117,116,100,103,120
118,119,120,125,129,134,117,121,116,124,121,115,117,88,128,121,143,131,130,130,138,206,129,121,109,117,117,113,110,101,105,121,116,119,117,100,112,116,111,121,124,121,120,124,126,113,145,120,125,119,124,140,129,107,95,121,122,120,119,114,117,160,149,120,106,125,125,127,136,197,61,121,122,120,118,123,123,83,147,120,124,123,121,114,121,99,143,119,114,119,122,126,123,125,109,121,119,120,120,128,161,108,132,120,125,123,121,115,107,106,141,119,115,121,122,113,119,119,122,120,132,127,130,125,135,156,67,122
112,117,117,122,122,107,120,121,137,128,119,105,100,74,89,121,105,122,126,123,117,119,133,120,133,117,117,116,136,153,121,120,117,123,123,141,122,93,123,120,105,122,119,114,111,90,126,120,161,122,121,122,124,146,129,103,104,122,122,121,119,161,153,88,124,122,121,110,122,187,108,89,121,123,122,117,130,72,106,100,125,126,126,118,127,150,142,94,112,120,116,124,113,3,95,102,125,116,119,121,125,120,133,88,127,129,127,122,129,131,128,99,115,120,120,125,112,103,126,102,125,124,125,125,108,88,98,102
115,122,122,122,119,121,130,106,130,127,124,120,130,168,121,106,123,120,119,107,106,104,129,120,119,121,123,163,130,158,118,91,118,118,118,131,108,72,116,101,113,125,125,130,132,144,95,101,124,125,124,121,124,97,130,122,125,124,125,127,128,130,130,117,106,112,110,136,151,106,52,102,123,125,131,133,133,147,160,75,114,119,115,113,106,97,82,109,122,121,120,118,117,116,127,104,125,122,120,113,127,109,135,124,134,123,124,125,122,126,127,118,112,119,119,120,128,145,147,106,116,121,121,120,121,138,104,114
111,116,113,118,94,0,99,106,123,119,124,121,120,153,123,105,117,119,116,104,106,100,153,116,117,121,124,147,157,126,122,97,123,125,124,128,126,111,61,106,117,118,119,122,117,110,129,112,114,116,114,128,106,96,55,118,111,126,125,122,128,109,89,101,135,123,125,128,129,119,65,104,113,121,116,93,104,98,124,120,115,117,119,130,128,131,122,109,118,121,121,119,118,110,112,106,122,122,120,119,120,115,140,116,121,124,123,122,125,111,114,118,119,126,124,127,120,129,122,109,115,118,122,115,124,130,116,100
127,118,118,119,115,133,111,110,121,125,119,120,130,125,98,122,119,120,119,109,104,98,122,121,128,126,124,119,116,136,108,115,125,122,120,118,117,109,135,117,117,119,117,113,113,122,104,120,102,121,120,120,112,100,119,110,134,120,121,121,121,151,154,109,109,119,119,119,118,114,120,98,113,121,118,121,122,173,110,104,120,121,124,121,116,129,89,117,128,118,119,120,116,106,154,119,111,121,119,117,114,106,129,107,118,126,125,125,110,90,142,119,129,119,119,122,122,123,78,114,110,119,116,113,114,115,142,122
129,121,123,125,114,123,160,127,117,122,124,137,118,110,150,118,121,121,120,118,123,137,125,112,121,119,118,118,118,89,108,114,120,124,121,123,121,118,113,117,122,119,123,117,115,123,140,113,118,120,119,119,115,101,108,117,120,122,121,117,115,119,111,113,120,123,120,117,123,118,102,118,124,120,120,113,107,111,131,120,117,114,115,127,118,115,118,118,113,122,121,125,120,132,89,121,120,124,123,124,127,163,108,120,116,122,123,121,118,118,151,121,117,123,121,121,119,110,139,119,129,121,123,127,122,144,135,117
107,113,112,107,115,131,113,99,126,124,126,156,155,113,110,113,114,123,122,117,115,117,120,105,121,122,120,116,113,114,121,117,118,117,116,118,118,111,123,118,118,120,121,119,124,150,103,114,115,117,114,113,109,110,119,119,121,123,123,122,128,117,92,112,121,122,121,117,114,141,162,119,121,121,124,136,141,131,112,110,119,119,117,122,127,149,138,120,119,120,120,120,117,91,114,124,114,118,120,128,133,137,150,118,135,126,123,130,120,137,90,117,119,122,123,131,128,125,132,127,121,122,122,123,117,102,127,121
116,122,120,119,109,107,119,114,139,121,120,111,116,142,136,125,122,119,120,117,115,107,122,123,119,123,119,114,136,122,104,112,129,122,124,155,133,107,124,136,121,120,123,118,118,107,109,117,122,123,121,120,123,120,124,117,113,119,117,121,117,112,146,107,120,123,124,123,126,139,60,119,119,122,121,131,117,109,92,102,121,122,120,109,109,118,145,131,130,125,125,123,121,155,123,124,118,123,121,117,116,121,124,124,121,122,122,125,117,85,99,118,127,126,124,122,128,150,171,126,129,125,123,134,130,105,112,129
118,121,123,135,123,113,117,118,128,124,121,107,110,105,152,135,108,123,121,119,115,92,61,114,129,114,113,112,123,175,109,114,116,125,125,123,123,103,87,110,114,123,122,125,120,120,134,122,124,119,118,118,127,58,111,121,112,116,115,111,108,139,120,111,123,116,119,123,124,107,127,120,128,120,113,113,110,118,119,121,112,126,126,131,130,106,53,101,136,126,124,117,123,130,166,133,126,121,122,132,118,81,103,113,108,113,115,116,97,169,139,110,138,127,129,134,125,138,82,130,116,121,115,128,125,105,130,104
125,124,125,119,124,111,138,127,113,117,116,121,119,99,74,119,124,124,122,117,119,147,122,115,122,123,122,128,120,114,128,132,110,119,120,120,121,135,120,118,125,118,120,128,122,109,112,110,122,117,118,119,111,97,142,128,121,122,120,108,123,111,121,122,120,123,123,124,116,153,131,109,109,113,115,116,105,108,93,128,126,118,117,109,105,107,139,119,116,124,123,125,127,127,123,124,135,126,126,125,127,132,109,116,120,121,120,118,121,145,149,123,117,120,123,138,143,121,154,131,126,121,118,108,113,131,134,123
119,120,120,125,139,141,132,119,125,123,119,119,118,118,158,125,114,123,124,133,131,121,44,114,127,118,114,112,110,134,126,124,118,121,122,117,113,106,98,111,119,122,120,133,153,123,128,108,119,118,117,117,112,121,111,118,116,117,118,115,129,127,123,116,124,121,119,121,122,120,153,120,124,122,120,120,128,137,115,118,124,118,120,122,127,110,117,123,117,124,122,130,146,120,161,113,126,118,117,113,108,133,97,111,121,124,121,117,121,118,126,140,116,116,121,129,107,103,113,126,120,122,118,104,101,104,133,115
121,129,125,131,126,121,146,150,138,119,124,131,128,92,145,101,118,121,122,140,127,119,148,123,120,125,125,120,130,124,121,126,117,124,124,124,133,113,125,120,119,118,120,120,116,82,110,113,126,124,121,117,127,208,142,114,122,122,122,135,142,112,98,119,115,119,121,129,140,138,99,109,118,119,119,114,115,110,119,109,127,120,119,118,110,104,126,109,122,125,129,146,148,141,115,112,124,122,123,121,109,119,122,129,121,123,121,113,115,96,134,126,133,123,122,128,121,132,126,119,118,124,122,130,118,102,114,116
114,117,115,105,112,136,76,100,129,123,122,112,115,110,112,108,121,115,114,110,125,112,156,116,118,120,119,112,117,154,126,109,120,123,124,146,146,96,133,102,114,123,120,118,110,86,137,112,137,125,124,107,97,111,129,115,122,119,120,111,104,126,108,136,116,121,121,120,114,111,116,112,117,121,117,115,108,74,114,100,114,119,123,125,123,138,135,90,145,127,123,134,140,147,148,117,117,118,116,100,106,97,130,99,110,122,125,136,134,134,145,79,139,123,123,128,159,87,154,107,113,118,119,117,114,143,117,96
121,121,118,119,122,116,151,91,125,123,125,119,116,125,52,91,117,120,118,112,125,118,97,92,122,121,122,121,123,122,126,93,122,122,121,112,119,118,130,66,114,123,119,119,108,108,113,11,127,116,122,129,126,113,139,0,116,124,125,139,130,147,159,0,122,121,119,119,127,123,129,0,120,121,121,119,113,119,120,0,118,120,120,124,127,121,122,0,118,118,119,118,124,113,120,0,116,120,119,115,112,95,102,43,121,119,118,126,132,160,147,76,125,123,124,123,120,104,101,96,122,120,118,111,102,86,127,106
101,124,125,165,129,83,114,112,150,118,124,121,127,170,175,114,115,123,119,112,103,73,53,118,130,121,121,122,149,134,145,117,114,121,122,113,115,75,111,119,125,125,125,132,154,148,119,118,122,120,121,118,102,138,101,120,124,129,129,125,137,173,171,118,129,117,122,138,145,134,105,120,122,124,120,111,111,95,130,119,115,119,121,123,118,140,64,120,122,119,117,113,112,104,128,119,114,121,121,134,143,109,125,119,116,119,117,111,101,112,133,119,130,128,126,129,150,158,186,118,128,119,120,117,104,96,123,120
111,117,118,120,131,107,74,120,124,122,122,128,124,103,128,120,125,120,121,133,124,98,118,119,114,121,121,119,117,119,136,120,125,124,124,128,142,161,121,119,117,121,117,113,109,93,85,121,124,123,120,114,104,83,119,119,121,127,128,144,147,128,138,119,121,119,122,132,128,98,112,120,112,120,117,105,111,112,105,121,121,121,118,116,108,111,131,120,111,115,117,120,120,80,97,120,132,126,122,121,122,105,86,120,132,122,120,106,116,110,124,119,117,123,126,128,126,159,87,120,119,119,116,103,98,119,124,120
117,119,122,125,128,114,139,119,141,128,125,123,130,109,111,121,115,122,122,126,124,191,139,119,116,116,115,102,98,87,74,121,110,124,119,111,130,122,127,120,144,122,127,130,136,97,125,120,117,123,121,119,125,126,119,120,114,121,123,151,134,102,120,121,121,118,116,121,123,129,92,121,128,127,127,122,115,108,62,122,132,125,122,132,122,113,130,120,113,121,120,117,111,107,128,120,117,120,121,116,112,102,135,119,120,120,119,123,127,127,131,119,101,121,121,130,113,121,110,120,147,122,123,115,119,159,147,120
119,120,119,118,115,126,113,120,116,123,122,121,117,119,120,120,131,123,122,118,108,119,131,120,116,119,119,111,112,99,127,119,130,129,127,116,123,149,119,120,111,118,117,106,115,121,112,120,130,119,118,108,105,74,136,120,112,122,121,117,108,103,102,120,121,122,120,121,117,118,135,120,118,120,120,120,118,116,141,119,113,120,122,128,121,147,129,120,127,120,121,116,123,164,161,119,123,125,124,128,123,118,108,120,118,117,118,118,117,119,93,120,127,125,128,141,143,113,95,120,113,117,114,111,109,125,126,120
122,121,121,127,111,78,124,119,114,122,127,124,110,134,86,120,142,121,120,112,120,182,150,119,117,122,121,121,108,106,79,121,125,125,123,96,121,133,115,120,122,123,125,127,132,109,129,120,115,118,117,113,109,114,116,120,111,114,113,107,107,126,103,120,116,124,131,150,149,159,131,119,126,119,116,112,112,133,103,121,118,121,121,125,117,121,153,120,121,122,122,125,115,111,146,119,120,120,120,104,113,118,98,120,126,121,119,137,125,124,133,119,114,117,122,127,105,82,120,121,127,128,125,124,127,159,150,120
120,124,124,122,112,115,130,119,119,121,120,129,134,114,101,120,118,122,119,116,113,49,143,119,132,127,130,141,123,133,100,121,108,118,116,107,103,133,132,120,138,117,115,121,119,142,134,120,116,125,122,107,100,78,98,120,118,125,123,97,108,113,109,121,130,125,125,150,140,112,111,120,126,121,119,116,121,114,167,119,116,119,118,129,121,123,107,121,116,118,122,133,136,146,139,119,125,126,127,126,132,174,120,120,122,122,119,123,119,108,130,120,119,121,118,111,108,129,106,120,149,122,119,116,112,131,135,120
111,123,126,129,129,160,155,120,120,118,118,121,114,119,115,121,121,126,121,118,114,122,122,121,112,117,121,120,123,129,102,121,119,118,117,108,110,114,167,119,120,124,124,133,132,126,115,120,120,121,119,130,131,136,167,119,133,125,122,109,112,116,110,120,120,118,122,123,129,166,140,119,113,117,115,107,108,74,129,119,120,126,126,120,123,130,142,120,128,124,122,131,135,153,133,119,119,123,121,112,111,138,124,120,118,119,118,122,127,103,78,121,123,122,124,130,121,137,145,119,116,118,119,123,123,123,85,120
122,120,118,116,122,116,127,120,125,121,123,129,132,116,122,120,124,125,126,141,130,122,136,120,115,120,116,111,125,125,118,120,119,124,122,121,116,128,129,119,116,120,124,131,134,140,154,120,143,121,125,120,112,65,144,120,111,123,120,103,115,105,140,120,123,123,124,131,134,102,119,120,122,123,120,116,114,113,131,120,116,114,112,100,104,106,127,120,124,124,127,141,143,141,105,121,116,119,115,115,114,88,107,121,128,124,122,120,122,137,157,120,118,123,125,122,123,107,105,120,129,121,121,124,139,177,99,120
115,121,122,120,109,107,124,120,113,122,123,120,131,165,101,121,145,125,123,123,125,217,143,119,111,120,120,121,121,113,126,120,117,118,120,121,122,133,134,120,120,125,119,115,118,113,119,120,127,114,119,111,114,201,185,120,111,116,118,118,120,109,124,121,124,125,120,114,113,102,141,119,139,125,127,126,135,91,125,120,112,121,117,110,97,122,124,120,111,119,120,112,120,124,102,121,117,118,121,121,117,93,114,120,120,124,120,120,119,117,119,120,116,117,118,111,116,130,127,120,120,125,126,124,124,102,86,121
117,123,123,122,113,126,188,119,137,120,116,113,112,99,105,120,117,120,118,114,127,95,131,120,112,119,122,139,113,96,115,120,130,123,123,112,115,105,129,121,120,119,118,116,114,94,99,121,120,124,121,122,131,175,162,120,113,122,119,121,110,110,108,120,122,122,126,165,161,149,118,119,126,120,120,114,110,123,139,120,125,124,122,123,124,131,126,119,114,116,119,122,127,154,128,120,125,127,127,132,133,129,95,120,130,126,124,113,130,143,176,120,121,124,127,128,136,154,157,119,122,121,120,116,119,114,89,120
120,122,121,132,118,117,127,120,122,123,121,122,133,118,119,120,116,119,120,114,109,103,105,120,123,121,120,121,122,115,125,120,117,119,120,124,126,124,118,120,121,121,121,122,124,122,122,120,120,122,120,118,117,122,122,120,119,122,122,128,124,121,97,121,108,125,125,130,120,124,138,119,149,119,119,117,125,111,131,120,115,123,121,110,118,94,116,121,111,123,118,113,140,148,85,121,126,117,118,133,129,86,120,120,120,125,123,125,117,118,158,119,104,125,122,118,126,101,124,120,144,116,116,120,128,222,128,120
109,121,121,124,126,149,99,121,131,126,124,128,115,101,126,120,112,119,119,135,115,131,101,121,122,122,119,118,122,115,116,120,119,121,123,117,120,129,123,120,126,118,116,116,116,100,91,120,104,119,116,112,123,125,117,120,125,124,126,140,132,154,117,120,115,119,122,135,114,116,110,120,122,124,123,136,122,117,118,119,119,122,121,118,122,155,148,120,127,115,118,119,123,86,80,121,132,127,124,131,123,132,123,120,115,121,119,114,111,119,125,120,118,122,119,96,133,118,114,120,123,120,123,134,121,122,122,119
121,125,122,109,122,123,122,119,112,119,121,134,123,116,125,120,130,116,119,122,121,116,106,121,116,120,117,120,123,122,122,120,122,124,132,138,154,128,121,121,128,123,123,101,105,113,123,120,122,117,107,114,121,119,119,120,119,124,136,153,121,122,122,120,121,121,117,109,126,123,122,121,118,118,111,113,123,115,98,120,122,125,135,120,129,132,121,120,120,122,111,95,102,108,122,121,120,121,125,115,120,122,116,120,119,119,115,115,117,120,114,120,121,121,132,130,130,130,123,120,119,124,119,114,110,119,128,120
133,123,121,113,126,125,153,119,122,121,134,141,131,113,108,120,121,124,116,100,125,122,137,120,125,123,122,119,121,116,119,120,118,120,118,110,105,115,122,124,117,119,118,130,122,117,118,118,126,124,129,136,134,99,120,119,119,121,119,118,124,138,117,120,117,120,115,121,122,120,122,119,122,123,130,132,124,121,122,120,119,121,123,137,128,121,120,151,119,123,120,119,122,121,121,241,118,120,120,120,120,121,121,242,120,121,120,125,105,119,120,240,119,121,122,127,136,118,118,242,126,126,127,123,117,158,129,240
116,119,117,127,120,119,122,241,123,122,122,133,125,120,120,241,120,122,119,123,116,120,121,242,121,122,123,123,130,114,119,241,117,121,115,117,111,114,119,241,118,117,124,122,124,122,120,168,125,121,120,121,122,121,121,133,121,124,121,123,121,121,120,124,121,124,125,120,132,133,123,122,119,118,113,113,118,119,118,122,119,122,125,120,115,106,119,120,122,123,123,121,156,130,123,121,119,120,119,120,117,119,119,121,121,121,121,121,120,121,124,120,120,121,121,122,121,121,122,121,120,120,120,122,121,121,121,120
122,122,123,118,118,132,125,121,120,122,122,122,122,118,119,120,121,122,121,120,121,120,121,121,120,121,121,122,121,120,119,120,122,119,120,121,121,121,122,121,118,122,123,123,135,139,121,120,120,121,120,122,121,120,120,120,120,121,122,122,121,121,121,120,121,122,122,123,121,121,120,120,121,122,121,122,122,122,121,121,120,121,121,122,121,120,122,120,121,122,122,122,121,122,122,120,120,121,120,121,121,121,121,121,121,121,122,123,121,121,121,121,121,121,120,122,121,122,127,120,119,121,121,122,122,121,122,120
119,121,120,121,121,120,121,120,121,122,121,123,121,130,120,120,121,121,121,122,122,129,121,120,121,122,121,121,121,122,121,121,120,121,121,122,121,120,122,120,120,120,120,121,121,121,120,120,120,120,121,122,121,121,119,119,119,120,121,121,121,120,121,120,121,123,122,122,121,119,121,120,120,121,120,122,122,120,123,120,121,122,122,122,121,120,122,121,120,122,121,122,121,122,121,120,120,121,121,122,120,121,120,120,121,121,120,121,121,121,122,121,120,122,122,122,121,121,120,120,119,118,118,121,121,120,121,120
120,121,120,122,121,121,122,120,121,123,122,122,121,121,122,121,121,121,121,122,121,121,122,121,121,122,121,121,120,120,121,121,121,122,121,121,120,120,121,121,121,122,121,121,121,120,121,121,120,121,121,122,120,120,121,120,120,121,121,121,121,121,121,120,121,122,121,122,122,120,121,120,121,122,122,122,120,120,121,120,121,122,122,122,121,121,121,120,120,121,121,121,120,120,121,120,119,120,121,122,121,120,122,120,120,121,121,122,121,122,124,120,121,121,120,122,121,121,127,120,122,122,121,122,122,123,128,121
122,123,121,123,122,122,121,121,119,120,120,121,120,120,118,120,119,121,120,121,121,121,118,120,121,122,121,122,121,121,118,120,121,122,121,122,121,121,119,120,121,121,121,122,122,120,120,120,121,122,120,121,121,120,120,101,121,120,121,121,121,121,120,90,120,121,120,121,121,121,121,92,121,122,121,122,122,120,121,95,121,123,122,122,121,120,122,99,121,122,121,122,121,121,121,99,119,121,121,121,120,120,121,100,121,122,121,122,122,122,122,100,121,122,121,121,121,121,121,103,121,123,121,121,121,121,122,105
120,120,121,122,122,122,121,108,119,120,120,121,120,120,121,98,121,122,121,121,121,121,121,96,120,122,121,122,121,118,137,97,121,122,121,121,121,121,121,100,120,121,121,122,121,121,120,102,121,121,121,122,122,121,122,108,120,121,121,121,121,121,121,107,121,119,121,122,121,122,111,104,119,122,120,122,120,119,121,109,120,121,121,122,121,121,122,112,121,121,121,122,121,120,121,109,120,121,121,122,121,122,121,105,120,121,121,122,122,121,121,107,119,121,121,122,121,122,121,106,119,120,121,122,121,120,121,108
120,122,122,122,120,120,121,108,121,122,121,121,121,121,121,108,121,121,120,122,121,121,122,110,121,122,121,123,122,121,122,112,121,122,121,121,121,121,122,113,120,121,121,122,121,122,121,111,120,122,121,122,122,121,120,112,120,120,121,122,121,121,120,112,121,123,122,122,122,121,122,114,120,121,121,122,121,121,121,112,120,121,121,122,122,121,120,112,120,120,120,122,121,120,120,113,120,121,121,122,122,121,122,115,120,122,121,122,121,122,118,114,121,121,120,122,121,121,122,116,121,123,120,121,121,121,122,118
119,119,120,122,121,120,120,114,121,121,122,122,121,120,121,114,121,121,120,121,120,121,114,114,121,121,121,121,121,122,122,115,120,121,121,123,121,120,121,116,121,122,121,122,122,121,122,117,120,121,121,122,121,122,122,118,120,120,120,122,121,121,121,115,120,119,121,122,121,122,122,116,121,122,121,121,121,121,121,116,120,122,120,122,121,121,121,115,120,120,121,122,121,121,121,116,119,120,120,121,122,123,126,116,121,122,122,121,121,121,122,117,121,122,121,122,122,121,122,116,119,119,120,122,121,122,121,116
121,122,122,122,121,120,121,119,121,122,121,121,121,121,122,119,119,121,121,121,120,118,135,114,120,121,121,121,120,121,120,116,121,121,121,122,121,121,121,117,120,121,121,122,121,121,120,118,121,123,122,122,121,120,121,119,120,121,121,122,122,121,121,117,121,122,121,123,122,121,124,118,121,122,121,121,121,121,122,118,120,121,120,121,121,121,122,118,119,120,122,122,121,121,121,114,121,123,121,121,121,121,121,116,121,122,120,121,121,121,121,116,121,122,122,122,121,120,121,116,120,121,119,121,121,121,121,121
120,121,122,122,121,120,120,129,121,121,121,122,122,121,121,116,122,124,121,121,121,121,122,116,120,119,120,121,122,122,127,115,120,120,120,122,121,121,121,114,122,125,122,122,121,120,121,118,121,121,121,121,121,120,122,118,121,121,119,122,121,121,118,117,119,121,122,122,120,116,129,115,121,122,121,122,122,122,120,117,121,122,120,121,121,121,121,120,121,121,122,122,121,120,120,118,120,121,121,122,122,123,130,118,121,122,122,122,122,119,121,118,121,122,120,121,121,120,121,118,121,120,120,121,121,121,122,118
120,121,121,122,122,121,121,118,120,121,121,122,122,121,120,118,120,123,122,122,121,120,121,118,120,120,120,122,121,121,122,119,122,123,120,122,121,121,121,118,121,122,121,122,122,121,122,119,120,122,121,121,120,121,121,119,121,122,122,123,121,120,121,119,120,121,122,122,121,121,121,119,119,119,119,121,121,121,121,118,120,121,122,122,122,123,121,119,121,122,122,122,122,121,120,119,120,122,121,121,120,118,112,117,120,122,121,122,122,121,122,118,121,121,121,122,121,122,122,121,120,121,121,122,120,120,121,121
120,120,120,122,121,121,121,119,121,123,121,121,121,121,122,120,120,121,121,122,122,121,122,120,120,122,120,122,121,121,123,119,120,121,120,122,121,122,122,120,121,121,121,122,122,121,121,118,120,122,121,122,122,122,126,119,120,121,121,122,119,117,136,118,120,121,121,122,122,122,122,119,122,124,122,121,120,121,121,120,119,122,119,121,121,121,122,119,120,119,120,121,120,121,121,120,122,123,121,122,121,121,122,121,122,122,121,122,121,121,122,120,120,121,121,122,121,121,121,119,120,120,119,120,120,122,121,118
121,122,122,122,121,121,122,121,121,123,122,122,121,121,122,120,121,121,120,122,121,121,121,120,122,122,121,122,121,121,121,121,120,121,121,122,122,121,121,121,119,118,120,122,121,120,121,119,121,122,121,122,121,120,121,120,121,123,122,122,122,122,121,119,120,121,121,122,122,122,121,119,119,119,120,121,120,119,120,119,120,122,121,122,121,121,122,120,121,121,121,122,121,121,122,119,121,122,120,121,121,121,122,120,120,121,120,121,121,121,121,120,120,121,121,122,122,121,125,119,120,122,120,121,121,122,121,118
120,121,121,122,121,122,122,119,122,122,121,122,122,122,122,120,120,120,120,122,121,121,122,120,120,121,122,122,121,122,121,119,120,122,119,121,121,121,121,120,121,121,121,121,121,121,121,121,120,122,121,122,122,122,121,118,120,122,121,122,121,121,121,120,121,122,120,121,121,121,122,121,121,123,122,122,121,120,121,119,119,119,120,121,120,121,121,118,121,122,120,121,120,119,122,119,121,122,121,121,121,121,121,121,121,121,120,121,121,121,121,120,120,121,121,122,121,122,120,120,120,122,121,122,121,121,122,120
121,122,122,121,120,121,121,120,121,122,121,122,121,120,121,121,120,120,121,122,121,121,121,119,119,120,120,121,121,119,120,120,120,121,121,122,121,121,121,119,121,123,122,122,121,121,122,123,121,121,120,122,121,121,131,122,120,121,121,122,122,121,121,119,120,121,120,121,121,122,122,119,121,122,121,121,121,121,122,120,120,123,122,122,121,120,121,120,119,117,119,122,121,122,121,119,120,123,122,122,121,120,121,119,121,121,121,121,120,121,121,120,121,122,121,121,120,121,121,120,122,122,121,122,121,121,122,120
121,122,121,122,121,121,122,119,121,123,121,122,121,121,121,120,120,120,121,122,121,120,121,119,120,121,120,122,121,122,121,119,121,122,121,122,121,120,121,121,121,122,121,122,120,120,121,121,120,121,120,121,121,122,122,120,120,120,120,122,121,121,122,120,121,123,121,122,122,121,121,120,120,121,121,122,121,120,120,119,121,122,121,121,121,121,122,121,120,121,120,122,121,121,122,120,119,120,120,121,121,121,121,120,120,122,121,122,121,121,122,121,121,121,121,121,121,121,121,121,121,123,121,122,120,121,122,121
121,123,122,121,121,121,122,120,120,119,119,122,122,122,122,121,121,122,121,122,121,121,127,121,121,122,122,122,121,120,122,121,121,122,121,122,122,122,122,118,120,121,121,122,121,121,122,120,120,121,121,122,122,120,120,120,120,121,121,121,121,121,122,120,122,124,123,123,123,125,129,124,120,121,120,122,122,121,120,120,120,119,120,122,121,121,121,120,120,122,121,122,121,121,121,120,121,122,120,122,121,121,122,122,121,122,121,121,121,121,121,120,121,121,120,121,121,121,121,120,121,122,121,122,121,120,121,120
121,121,121,121,121,121,122,121,120,121,120,121,121,121,121,121,121,121,121,121,121,121,121,119,122,125,121,121,120,119,120,121,120,119,121,122,121,121,121,120,120,123,121,122,120,120,121,119,119,120,121,121,120,120,121,120,121,123,122,121,121,121,121,120,120,122,119,122,121,121,121,120,120,121,121,122,121,122,127,119,120,121,121,122,121,121,122,120,120,121,121,122,121,122,122,120,120,121,121,122,121,122,119,119,121,121,121,122,122,121,121,120,120,121,121,123,122,121,121,119,121,123,122,122,121,121,121,120
120,120,121,122,122,121,122,120,121,122,120,121,121,121,121,120,120,121,121,122,121,120,121,120,119,120,121,122,121,121,121,120,121,123,122,122,121,121,122,121,120,121,121,122,121,122,121,120,121,121,120,121,121,120,120,120,120,121,120,122,122,120,121,119,121,121,121,122,121,122,121,119,121,122,121,122,121,121,121,120,120,121,121,122,121,121,121,120,121,120,121,121,121,121,121,120,121,123,120,122,121,121,122,120,119,118,120,121,121,121,122,120,121,122,122,122,120,121,121,120,120,121,120,121,119,118,105,118
121,122,122,123,121,121,122,120,119,121,121,122,122,122,121,120,120,120,121,122,121,120,121,120,120,122,120,122,121,120,120,120,122,124,121,122,121,121,121,120,120,120,120,122,122,122,122,121,120,121,120,122,121,120,122,120,121,122,121,121,121,121,122,121,120,121,121,122,121,121,122,120,121,122,121,122,121,120,121,120,120,121,121,122,121,121,121,119,121,121,121,122,121,120,121,120,120,122,121,122,122,122,121,120,121,122,120,121,121,121,121,120,120,120,121,122,122,121,121,120,120,118,120,122,120,120,121,120
121,125,123,122,121,121,122,121,120,119,119,122,122,121,120,120,120,120,121,121,121,120,122,120,121,122,121,121,121,121,122,121,121,121,121,122,121,121,121,120,120,121,121,122,121,120,121,120,121,122,120,121,121,121,121,119,121,122,121,121,120,121,121,120,120,121,120,121,121,121,122,120,120,120,121,122,121,121,123,121,119,122,121,122,121,122,122,120,121,123,122,122,121,120,121,120,120,121,121,122,121,121,121,120,120,121,121,122,121,121,121,119,120,121,121,122,121,121,121,119,121,122,121,121,121,120,121,120
121,121,122,122,122,121,121,121,119,120,121,122,121,123,119,118,120,121,120,122,121,122,122,120,120,121,121,121,120,120,121,120,121,122,120,122,121,121,121,120,121,122,121,121,121,121,122,121,120,121,121,122,121,121,121,120,120,121,121,122,121,120,121,120,121,122,123,122,121,120,121,120,120,122,120,122,121,120,120,120,119,118,120,121,121,121,121,120,120,122,122,122,121,122,122,120,121,122,121,122,123,124,122,119,120,121,121,122,122,121,121,119,120,121,121,122,121,122,121,120,121,122,121,122,121,121,120,120
121,121,120,121,121,121,122,120,121,121,121,122,121,121,121,120,118,121,121,121,121,120,121,119,120,121,121,121,120,119,111,119,121,123,122,122,120,121,122,120,121,122,122,123,121,120,122,121,120,121,120,122,121,121,121,120,120,121,121,122,121,120,120,120,121,123,121,122,122,120,121,120,119,120,120,122,122,121,122,120,119,119,119,121,121,120,120,119,120,121,121,122,121,120,122,122,121,123,121,122,121,121,122,120,120,121,121,122,121,122,121,121,121,119,120,122,120,120,121,119,120,124,121,121,120,120,121,121
120,120,120,121,121,121,122,120,120,121,121,122,121,122,122,120,121,122,121,122,121,122,122,121,121,121,120,121,121,121,121,121,121,122,121,121,121,121,121,120,120,120,121,122,122,121,121,120,121,122,121,122,121,121,121,121,122,121,120,121,121,121,122,121,122,124,122,123,122,122,121,120,119,118,119,121,121,121,121,120,120,122,121,122,120,120,109,118,121,123,122,122,121,120,122,121,120,121,120,121,121,121,121,121,122,121,120,122,119,121,122,121,120,121,121,123,119,120,121,124,121,122,122,122,120,120,121,121
121,119,120,122,122,121,122,119,119,123,121,123,122,122,121,118,119,119,121,120,118,120,120,118,121,121,121,125,125,122,121,119,121,122,121,122,121,121,121,120,121,124,122,122,121,121,120,120,119,117,119,121,121,121,122,120,120,121,120,121,121,121,121,120,121,123,121,122,121,121,121,120,120,122,122,124,120,120,121,120,120,121,121,121,120,120,120,120,121,121,121,121,121,122,122,121,121,123,122,122,122,121,121,120,120,121,121,122,122,121,121,120,120,122,121,122,121,121,122,120,120,121,121,120,120,121,121,120
120,121,121,121,120,121,121,121,120,121,121,122,121,121,121,121,120,122,121,122,121,121,121,120,120,121,120,121,121,120,121,121,121,121,120,121,120,121,116,120,122,122,121,122,122,122,124,121,121,123,121,121,121,121,121,120,119,118,119,121,121,120,120,119,121,123,122,122,121,121,120,121,121,121,121,122,122,120,120,120,120,121,121,122,122,121,121,120,120,121,121,122,122,122,121,119,119,120,121,122,121,122,121,120,119,120,120,122,122,123,121,120,121,122,121,122,121,120,121,120,120,121,122,122,122,122,121,120
119,120,121,122,121,121,121,119,120,122,121,122,121,120,121,120,121,122,121,121,121,121,121,120,120,120,119,121,121,121,122,120,121,122,122,122,122,121,121,120,120,119,121,122,121,121,122,120,120,122,121,122,121,122,121,120,120,122,122,122,122,121,121,119,121,121,121,122,121,122,122,120,119,120,120,122,122,121,121,120,120,121,121,121,120,120,121,119,120,122,121,122,122,122,128,119,120,121,120,122,121,122,120,120,120,120,121,122,121,121,122,120,119,121,120,122,121,122,122,120,121,120,121,121,121,121,122,120
120,122,121,122,120,120,121,120,120,120,120,121,120,120,121,120,120,122,122,122,121,120,120,119,122,123,121,122,122,122,122,121,121,122,120,122,121,121,122,121,120,121,121,122,121,120,121,120,120,122,120,121,121,121,122,120,120,120,120,121,121,121,121,120,121,123,122,122,121,121,121,120,119,120,120,122,121,120,121,120,121,120,121,121,121,121,122,121,121,122,121,122,122,122,122,120,122,123,121,122,122,121,122,120,121,122,120,121,121,121,122,121,120,121,121,122,121,122,121,119,121,121,121,122,122,121,121,119
120,121,121,123,121,121,121,121,119,121,120,120,121,121,126,121,121,121,121,121,120,121,122,122,121,122,122,122,121,121,122,121,121,122,121,121,120,122,119,120,121,122,121,121,121,121,122,121,121,121,120,122,121,121,121,120,120,121,121,122,121,121,122,121,120,120,122,122,120,119,121,120,120,121,119,121,121,120,121,121,121,122,121,122,120,120,121,120,121,122,121,121,120,121,121,120,121,121,120,121,121,121,121,120,121,123,121,122,121,121,121,121,120,121,121,122,121,121,121,120,120,121,121,122,122,121,121,119
121,121,121,122,122,121,121,120,121,123,121,123,122,121,122,121,120,121,121,121,120,121,121,121,119,117,119,120,121,120,121,120,122,124,122,121,121,121,122,121,122,122,122,122,121,121,121,120,120,121,120,122,121,121,121,120,120,121,120,121,121,122,122,121,121,121,120,121,121,121,122,121,120,120,120,121,121,120,123,121,121,123,121,122,121,118,107,120,119,119,120,122,122,123,124,119,120,121,121,121,121,120,121,121,120,121,121,122,121,121,122,121,121,123,122,121,120,120,121,121,121,122,120,121,121,121,121,120
119,121,121,122,121,121,121,120,121,122,121,122,120,121,121,120,121,122,121,122,121,121,121,121,119,118,120,122,122,121,120,119,120,120,120,121,121,121,122,121,121,122,121,121,121,121,121,121,121,122,122,122,121,121,121,120,121,122,122,122,122,121,121,121,120,121,121,121,121,121,121,121,120,121,120,122,121,121,122,120,120,121,121,122,121,121,121,119,121,123,122,123,121,120,122,121,118,118,119,121,122,122,121,119,121,122,122,122,121,120,119,119,121,122,121,122,121,121,122,121,121,122,121,122,122,121,120,120
120,121,121,122,122,121,121,121,120,121,121,122,121,120,121,119,120,121,121,121,121,119,103,117,121,124,123,122,121,121,122,121,119,119,119,122,122,121,122,120,118,120,120,121,121,121,121,119,121,121,120,122,122,120,121,120,121,123,122,123,122,121,120,120,120,122,121,122,122,121,121,120,120,121,121,122,121,121,121,120,119,120,120,122,121,122,121,119,120,122,121,122,121,122,121,120,121,122,121,121,120,121,121,121,121,122,121,122,122,122,122,121,120,122,122,122,122,121,121,119,120,120,120,122,121,122,122,119
120,121,120,121,121,121,121,121,121,122,121,122,122,122,122,120,120,121,121,122,122,121,121,120,120,121,121,122,121,121,121,120,121,122,121,121,121,122,122,120,121,122,120,122,121,119,119,120,120,120,120,121,121,121,121,120,120,121,121,122,121,121,122,120,121,122,121,122,122,123,128,120,120,121,120,122,121,120,121,120,121,122,121,122,121,121,122,121,121,123,121,121,121,120,121,120,120,121,120,122,121,122,122,120,120,121,120,122,121,121,122,121,121,121,121,122,122,121,120,120,121,120,121,121,121,120,121,120
120,123,122,122,122,121,120,119,118,117,118,120,121,122,122,120,121,123,122,122,122,122,121,120,121,123,122,122,122,121,121,121,121,122,121,121,121,121,121,121,120,121,120,121,121,121,122,120,120,122,122,122,120,121,121,120,121,122,121,121,120,121,121,120,120,122,122,122,122,121,121,119,120,122,121,122,121,121,121,120,121,122,120,121,120,121,121,121,120,121,121,121,121,121,122,121,121,120,121,122,121,120,123,120,121,123,121,121,120,121,121,120,120,122,121,122,121,121,122,121,121,122,121,122,121,121,122,121
121,123,121,122,122,121,121,120,120,121,120,122,121,121,122,120,120,120,121,122,122,122,131,120,121,122,122,122,120,120,122,120,121,123,121,122,121,121,122,121,120,121,121,122,122,122,122,120,121,122,121,121,120,121,121,121,121,122,121,122,122,121,122,121,121,122,121,122,121,121,122,120,121,124,122,122,122,122,122,120,120,119,118,120,120,121,121,120,120,122,121,122,121,121,121,120,121,121,121,122,122,121,121,121,121,122,122,121,120,121,121,120,121,122,121,121,121,121,121,120,121,122,121,121,120,120,121,121
121,122,122,122,121,120,121,119,120,121,120,121,121,120,121,121,120,122,122,122,121,121,121,120,121,122,121,121,121,122,122,121,119,121,120,121,120,122,121,120,120,120,120,122,121,122,118,119,121,123,122,123,121,120,121,120,121,122,121,121,121,121,122,120,121,122,121,122,121,121,122,121,120,121,121,122,122,121,121,121,120,121,120,121,121,121,122,121,120,121,121,122,121,121,121,120,121,123,122,122,121,121,122,121,119,119,118,120,120,121,121,119,119,119,120,121,121,120,120,119,122,123,122,122,121,121,121,120
121,122,122,122,122,121,121,120,120,122,121,122,121,122,121,120,122,123,121,122,122,122,122,120,120,120,121,122,121,120,120,120,121,122,122,122,121,121,121,120,120,120,121,122,121,122,122,120,120,122,121,121,122,123,124,120,120,120,121,122,122,120,121,119,120,120,120,122,121,121,120,120,120,121,122,122,122,121,121,121,121,123,121,122,121,121,122,120,121,122,121,122,121,120,121,119,120,122,121,122,121,122,121,120,121,120,120,122,121,121,122,121,121,121,120,121,121,121,121,121,121,122,121,121,120,121,121,120
121,123,121,123,122,121,129,123,119,121,120,121,121,121,122,120,120,121,121,121,121,121,123,120,121,122,122,123,122,121,122,121,121,122,122,122,121,121,122,121,120,121,120,122,121,121,122,121,120,121,121,122,121,121,121,119,120,121,121,122,122,121,121,119,121,121,122,123,121,121,121,121,120,122,121,122,121,120,121,119,119,118,119,121,121,122,121,119,121,122,120,121,121,120,121,121,122,122,122,122,121,121,122,122,120,121,121,122,122,122,121,119,120,121,121,122,121,121,121,119,121,124,123,122,120,121,121,120
120,120,121,123,122,122,121,121,119,118,119,120,120,120,120,119,121,122,120,122,121,121,121,120,121,123,122,122,121,120,121,120,120,122,121,122,122,121,121,120,121,122,121,121,121,121,121,120,120,121,121,121,121,120,120,120,120,122,121,122,121,122,122,121,120,120,120,122,121,121,121,120,121,122,121,121,120,121,121,119,120,121,120,122,121,121,121,120,120,121,121,122,121,122,121,120,121,122,121,122,121,121,121,121,121,123,121,122,122,122,122,122,120,120,121,122,121,122,121,121,121,122,122,122,121,120,121,119
121,122,121,122,121,118,116,122,121,121,121,121,121,120,122,121,121,123,121,121,120,121,122,121,120,120,120,121,121,121,122,119,120,121,121,122,121,121,121,119,120,121,121,122,122,121,123,120,121,122,121,122,121,120,121,120,121,123,121,122,121,121,122,121,121,120,121,122,120,120,121,120,120,122,120,121,121,121,122,121,120,121,122,122,121,121,121,121,122,123,122,122,120,121,121,120,119,121,121,122,122,121,121,119,121,121,120,121,121,121,122,121,121,122,121,121,121,121,121,121,121,122,122,122,121,121,121,119
119,120,121,122,121,121,121,121,118,118,119,121,121,121,121,120,122,123,121,121,120,121,121,121,121,122,122,123,122,121,121,120,121,122,122,122,121,121,122,120,120,121,121,122,121,120,120,120,120,122,121,122,121,121,121,120,120,121,120,120,121,120,121,120,120,121,121,122,121,121,122,120,121,122,120,121,121,121,121,121,121,122,121,121,121,121,121,121,120,121,121,122,121,121,121,120,121,121,121,122,122,121,120,120,120,121,121,122,121,121,123,120,120,119,121,122,122,121,121,120,119,122,121,121,120,120,121,120
121,122,122,121,121,121,122,121,121,121,120,122,121,121,121,120,120,121,121,122,121,121,121,120,121,123,122,122,122,121,120,120,119,119,120,122,121,121,121,120,121,122,121,121,121,121,122,121,120,122,121,122,121,121,121,120,121,122,121,122,121,121,121,120,120,121,121,122,121,121,122,120,121,124,122,122,121,121,121,120,120,120,120,121,122,123,122,121,120,121,121,121,120,120,121,120,120,121,121,122,121,122,121,119,121,123,122,122,121,120,120,119,119,119,120,121,120,121,103,117,121,122,120,121,121,121,122,121
120,120,119,121,121,121,122,121,119,121,121,122,121,121,122,120,121,122,121,122,122,121,120,119,121,121,121,121,121,121,121,121,117,120,119,120,121,129,114,114,121,121,121,122,121,121,121,121,121,121,121,122,120,120,121,120,121,122,121,121,121,121,122,121,119,120,119,121,121,121,122,119,120,119,121,122,121,121,122,120,120,123,121,121,120,117,103,119,121,121,122,122,122,121,122,121,121,120,121,121,121,121,122,121,120,121,120,122,121,121,122,121,121,121,120,121,121,122,121,120,119,120,121,122,122,122,121,120
121,123,121,121,120,120,121,121,121,122,121,121,121,121,122,121,121,122,121,121,121,121,122,120,120,121,120,121,121,121,121,119,121,120,120,121,121,121,121,121,121,123,121,121,121,121,121,121,121,122,122,122,121,121,121,120,121,120,119,121,121,121,121,121,120,121,120,121,121,121,121,120,121,121,120,121,121,121,121,121,120,122,121,122,121,120,121,120,121,123,122,122,121,121,122,121,121,123,121,122,121,121,122,120,120,120,119,122,121,121,121,120,119,121,121,121,121,121,121,120,120,120,121,122,121,121,122,119
120,120,120,122,121,121,121,121,120,123,122,122,121,121,121,120,120,121,121,122,121,121,121,121,121,122,121,122,122,122,122,120,122,121,121,122,122,121,129,122,121,123,121,122,121,122,122,121,119,120,120,121,122,121,121,120,121,122,122,121,120,120,121,120,122,123,121,121,121,121,122,120,120,122,121,122,121,121,122,120,120,122,121,122,121,120,120,119,121,121,121,121,120,121,121,121,120,123,121,121,121,122,121,120,121,121,121,121,121,121,121,121,121,122,121,122,121,121,121,120,121,122,121,122,121,120,121,121
121,121,120,121,121,121,121,121,120,121,121,122,121,121,121,120,120,122,120,121,121,121,122,119,121,122,120,121,121,121,121,121,121,121,120,122,121,122,122,120,120,121,121,122,121,121,122,121,120,120,120,122,122,123,129,121,120,121,121,122,121,121,122,120,120,121,120,122,121,122,123,120,121,122,122,121,120,121,121,120,121,123,122,121,120,121,122,121,119,119,119,121,121,121,121,119,121,122,121,122,121,120,122,120,120,122,121,122,120,120,121,121,122,122,122,123,122,122,141,125,121,122,121,122,121,121,120,121
121,123,122,122,121,121,121,121,121,121,120,122,122,121,122,121,120,120,120,121,121,121,121,120,120,121,121,122,121,121,122,121,120,119,120,122,121,121,121,121,120,122,121,122,121,121,121,120,120,121,121,122,121,120,120,119,121,121,120,121,121,121,121,121,120,121,121,122,122,121,120,120,120,121,120,122,121,121,121,120,120,121,121,122,121,121,122,120,121,121,121,122,121,120,122,120,120,121,120,122,121,122,119,119,120,122,122,122,122,121,119,119,120,121,120,122,121,121,122,121,121,122,121,122,121,121,122,121
120,121,121,122,121,121,121,120,121,122,122,122,121,121,121,120,121,122,121,122,121,120,121,120,121,121,120,121,121,121,121,121,120,122,121,122,121,121,122,119,120,121,121,122,121,122,122,120,120,121,121,121,122,124,123,120,120,122,122,122,121,120,121,120,121,120,121,122,122,122,122,121,119,123,121,122,122,121,121,120,119,118,120,121,121,121,121,120,121,122,121,121,121,121,121,121,121,122,122,123,122,121,121,120,120,122,121,122,122,121,121,120,120,120,120,122,122,121,120,119,119,120,120,121,121,121,121,120
121,122,122,122,122,121,120,120,120,122,121,122,122,121,121,120,120,121,122,122,121,121,121,121,121,122,121,121,121,120,122,122,121,122,120,121,121,121,122,121,120,123,122,123,124,126,121,120,121,122,121,121,119,119,121,120,120,121,121,122,122,121,122,120,121,122,121,121,121,121,122,120,121,120,121,122,122,122,122,120,120,121,121,121,120,120,120,120,122,122,121,121,121,121,121,120,121,121,121,123,121,120,121,120,120,123,121,121,121,123,122,120,120,121,121,121,121,121,122,120,121,124,121,122,121,121,121,121
119,118,120,122,121,121,120,121,120,120,120,121,120,120,121,120,120,123,122,122,120,120,121,120,121,122,122,122,121,120,121,120,121,122,121,121,121,121,121,121,120,121,120,122,121,122,121,120,121,122,121,122,122,122,122,121,120,121,121,122,121,120,120,120,121,122,120,122,121,121,121,120,120,121,120,120,120,120,105,118,122,123,121,121,121,121,123,120,119,120,120,122,122,121,121,119,120,120,120,121,121,121,122,120,121,122,120,122,121,121,122,121,121,122,122,122,120,119,121,121,122,122,121,122,122,121,121,121
121,121,121,121,120,121,122,120,121,123,121,123,121,120,121,120,120,120,120,121,121,121,122,121,121,122,120,121,120,120,121,121,120,122,121,122,121,121,120,119,119,120,121,122,121,121,121,120,120,121,120,122,122,122,122,121,121,122,121,122,121,121,121,120,121,122,121,122,121,121,122,121,120,123,123,122,121,120,121,120,121,120,119,121,121,121,121,121,120,121,121,122,121,122,121,120,120,122,122,122,121,120,118,119,121,122,122,122,121,121,121,120,120,121,121,122,121,119,109,118,120,121,121,122,122,121,122,120
121,121,120,122,121,121,122,119,121,122,122,122,121,120,121,120,120,121,120,121,121,121,120,120,120,119,119,121,121,121,122,121,120,123,121,123,122,121,121,119,121,123,122,122,122,121,121,121,120,120,121,122,121,120,121,121,120,121,121,122,121,122,121,120,121,121,121,122,121,121,122,121,121,122,121,122,122,121,121,120,120,121,121,122,121,120,121,120,120,121,120,121,121,121,122,120,120,121,121,122,121,121,121,121,121,122,121,122,121,119,120,121,121,121,121,122,121,121,121,120,120,121,120,121,121,120,121,120
121,122,121,121,120,120,121,121,120,122,122,122,122,121,117,119,120,121,121,122,121,120,121,121,120,121,121,122,122,121,122,120,121,122,121,121,121,121,122,121,121,122,121,122,122,122,100,119,121,123,122,123,122,126,122,121,120,121,121,122,121,117,119,120,119,121,121,122,121,121,122,119,120,121,121,122,122,121,121,120,121,122,121,122,122,122,121,119,120,122,121,122,121,120,121,120,121,123,122,122,121,120,121,120,121,119,120,121,121,121,121,121,119,120,120,121,121,121,122,120,121,122,121,119,120,121,121,120
121,124,123,119,120,121,122,120,120,118,120,122,121,121,122,121,120,121,121,123,121,122,122,120,121,122,121,122,121,121,121,121,121,122,122,122,121,121,121,121,121,122,121,121,121,121,121,121,120,121,121,122,121,121,121,119,120,122,121,121,121,120,114,118,120,120,121,122,122,122,124,120,120,122,122,122,121,120,120,119,121,121,121,121,120,121,121,120,121,121,121,122,122,122,121,121,121,121,120,122,122,122,122,120,121,121,120,121,121,121,121,121,121,123,121,121,120,121,121,120,121,122,122,122,121,120,121,120
121,123,121,122,121,120,121,121,120,119,121,121,120,121,121,121,120,121,121,121,121,121,121,120,121,122,120,121,121,121,121,120,121,122,122,122,121,121,122,121,121,122,121,121,121,121,122,121,121,122,122,122,121,120,121,120,121,122,121,122,120,120,121,120,121,121,121,121,120,120,121,120,120,121,121,122,122,121,121,121,121,123,121,121,120,121,121,121,121,122,122,122,121,121,121,120,121,123,121,121,121,122,121,120,121,121,121,122,121,121,121,120,119,120,121,122,121,120,120,120,120,122,121,122,122,123,121,120
121,121,121,122,122,120,122,120,121,122,122,121,120,120,122,121,119,119,119,122,121,121,106,119,121,124,122,122,121,120,122,120,120,122,121,122,121,122,122,119,121,121,121,121,121,121,121,121,119,120,120,122,122,122,121,120,121,121,120,121,121,121,121,120,120,122,122,122,121,121,122,120,121,122,122,123,122,121,121,120,120,120,120,121,121,121,121,121,120,121,121,122,121,121,121,120,119,121,121,122,122,122,121,120,120,121,121,122,121,121,122,119,120,121,121,122,121,121,121,120,120,121,121,122,122,122,121,120
121,121,121,122,122,121,120,120,120,122,120,122,121,121,121,121,119,118,120,121,121,121,121,120,121,123,122,123,121,121,122,121,119,121,120,122,121,121,121,120,121,121,121,122,122,121,121,120,120,121,120,122,121,121,122,121,119,121,121,122,121,121,121,119,121,121,121,122,122,122,122,120,121,121,121,122,121,120,121,121,119,121,121,122,122,121,121,119,120,121,121,122,122,122,121,121,121,123,121,122,122,121,122,121,119,120,120,121,121,121,121,121,121,122,122,122,121,121,120,120,121,122,122,122,121,120,121,120
121,122,121,122,121,121,121,120,120,120,120,121,121,121,122,120,121,122,121,119,122,122,122,120,121,124,121,122,121,122,120,119,121,120,120,120,122,125,122,121,119,120,120,121,121,121,121,120,121,122,122,123,122,121,121,120,120,121,121,122,121,121,121,119,120,121,121,122,121,120,120,120,121,122,121,121,121,121,121,121,120,121,121,124,122,121,122,120,119,119,119,121,121,121,110,119,119,120,121,122,121,121,122,120,121,122,120,122,122,122,122,121,120,119,121,122,122,122,122,121,120,123,121,122,121,121,121,120
121,121,121,121,120,121,121,120,119,120,121,122,121,121,122,120,121,122,121,121,121,121,121,121,121,122,122,122,120,118,121,121,121,122,122,122,120,120,120,121,121,123,122,122,120,120,121,120,120,120,120,121,121,121,121,121,121,122,121,122,122,121,120,120,121,121,121,122,121,120,121,120,121,121,121,122,122,121,122,120,120,121,121,122,122,121,121,120,119,120,120,122,122,120,121,120,120,121,121,122,121,121,122,120,120,121,122,122,121,121,121,120,121,122,121,121,120,118,104,120,122,123,120,121,121,121,122,122
121,122,122,122,120,121,122,121,120,121,120,121,121,121,121,120,121,121,121,121,121,121,121,121,121,121,120,121,121,121,122,121,120,121,121,122,121,121,122,120,120,121,121,122,121,121,122,120,121,122,121,121,121,121,121,120,121,122,121,122,121,122,122,120,119,118,120,121,121,121,121,120,120,122,121,122,120,121,121,121,120,122,121,122,122,121,121,120,121,121,121,121,121,121,121,120,120,121,121,122,121,121,121,119,121,121,120,121,121,120,123,121,120,121,120,121,120,121,121,120,120,122,120,122,121,121,122,121
121,124,122,123,122,121,121,120,121,120,120,121,121,121,122,110,118,119,119,121,120,119,109,115,121,121,121,121,121,121,122,122,121,121,121,122,121,121,122,123,121,121,122,121,120,121,121,122,121,122,120,121,120,119,121,123,121,122,122,122,120,120,120,122,119,120,121,122,121,120,120,120,120,120,121,122,121,120,121,120,120,121,121,122,120,116,127,118,122,123,121,121,121,121,121,121,119,121,121,122,122,120,121,120,121,120,121,122,121,119,121,122,121,123,121,122,121,121,121,122,122,122,120,122,121,121,124,120
121,122,121,121,121,122,121,120,120,120,121,122,120,120,122,121,119,122,121,122,122,125,133,120,123,122,121,121,121,120,151,126,118,121,120,120,121,124,113,113,117,121,121,121,120,119,120,117,124,120,120,121,119,115,138,111,100,117,117,120,119,116,104,111,155,126,122,122,123,123,130,145,115,124,123,122,121,118,104,122,130,120,121,123,123,123,138,126,117,118,118,119,118,120,76,130,120,123,122,122,120,125,115,141,124,123,121,133,122,116,109,101,119,120,122,127,125,119,137,121,116,122,123,116,115,120,155,144
122,125,123,125,136,148,95,98,103,117,120,125,130,126,126,102,149,124,124,128,130,127,155,153,126,126,123,125,122,116,114,114,118,118,119,125,122,121,120,129,111,119,121,122,121,123,127,108,126,119,120,125,113,117,111,122,128,128,128,125,145,134,120,143,132,124,123,133,124,123,111,113,119,116,122,126,129,132,93,156,126,121,121,121,117,98,87,94,115,123,118,115,118,131,91,114,110,118,118,125,115,112,138,130,123,121,123,123,144,168,130,100,119,122,123,119,121,127,128,142,120,123,119,113,115,123,126,112
116,120,120,123,117,112,119,104,124,119,120,126,118,115,125,132,127,124,122,111,111,122,121,137,114,118,117,117,136,119,110,117,127,120,122,126,119,101,128,144,113,120,120,123,120,118,111,102,122,118,118,119,121,116,95,111,104,123,121,122,122,124,107,109,135,122,123,110,127,138,114,115,135,126,122,125,132,125,122,125,107,117,119,123,125,117,120,106,126,123,123,120,122,120,123,130,125,121,121,122,124,117,136,127,111,124,122,128,115,96,130,104,134,120,122,128,122,118,107,147,108,121,120,140,142,115,94,89
146,125,125,131,117,121,141,199,111,123,121,107,105,154,106,72,122,123,122,136,113,114,127,132,123,122,121,113,116,107,99,106,108,118,119,119,122,140,145,122,140,125,123,122,116,125,146,152,119,123,121,123,127,121,89,96,112,121,120,121,122,122,128,131,140,125,122,129,127,121,119,125,114,122,118,101,105,120,119,128,123,120,122,118,121,129,177,123,121,118,116,115,116,119,117,117,123,126,129,169,130,126,123,94,113,122,119,118,119,123,175,131,119,120,120,120,121,124,96,114,111,118,116,117,126,133,79,96
120,118,117,109,112,99,131,119,112,122,123,133,157,104,119,106,127,125,124,124,121,125,135,119,128,124,121,100,110,117,120,174,112,116,119,121,116,110,122,135,118,119,119,121,124,124,117,96,123,123,122,110,82,110,123,80,144,130,126,135,102,108,125,171,115,119,121,120,127,127,165,103,103,117,120,120,118,120,119,106,124,124,122,121,147,178,119,119,128,123,123,124,127,123,116,129,116,119,119,121,116,117,129,114,106,116,119,131,121,93,110,108,132,125,121,115,112,120,130,100,122,118,119,118,121,119,107,128
133,124,123,118,127,117,103,114,104,120,117,94,107,125,113,84,126,122,122,129,130,128,155,142,114,120,120,130,119,119,99,108,117,120,117,107,101,104,114,106,104,116,117,126,122,119,120,104,160,127,123,117,129,124,100,131,117,118,119,118,107,133,134,143,117,121,119,127,138,150,141,118,112,116,118,121,128,121,107,119,131,125,123,120,120,123,135,139,116,118,121,121,96,91,110,96,119,123,121,116,126,129,135,158,141,130,129,146,163,130,90,110,132,126,122,120,119,119,127,124,106,112,117,123,116,124,149,119
121,120,120,122,121,117,115,102,127,125,120,114,110,119,119,118,122,124,123,120,128,139,168,136,108,118,118,108,129,124,80,90,123,120,119,119,115,116,123,117,121,122,124,135,96,95,120,134,121,125,120,116,129,127,106,127,128,123,122,117,155,161,129,107,103,114,119,140,123,111,110,96,127,120,124,152,139,111,128,124,144,129,125,121,122,122,129,138,122,121,121,121,116,118,105,108,112,120,123,133,121,134,156,128,114,124,121,132,151,140,74,78,128,121,121,129,136,126,187,155,118,118,122,119,119,121,107,134
115,121,119,118,118,119,117,131,115,119,118,111,122,110,117,138,128,123,121,131,127,109,81,105,117,117,115,108,128,134,97,123,118,126,125,119,106,117,101,106,123,121,122,122,122,116,109,110,113,116,117,121,131,132,90,120,123,124,124,148,143,149,102,118,119,125,121,123,129,128,116,132,97,119,121,121,132,126,114,100,130,121,120,121,118,112,138,120,126,128,125,135,125,131,166,136,107,116,119,119,115,119,111,109,126,124,122,122,117,121,137,130,135,125,125,115,105,91,111,121,126,126,122,122,120,131,132,122
119,119,121,141,126,124,182,140,116,120,118,104,96,109,109,106,119,119,119,124,123,121,126,119,119,120,121,122,127,119,110,104,131,124,124,124,112,119,152,147,115,120,118,120,124,121,129,129,119,121,122,133,124,124,127,125,123,119,119,119,121,122,138,121,118,121,121,113,130,153,166,123,145,127,124,128,125,124,133,137,105,117,116,111,115,110,69,100,111,120,119,124,118,116,122,99,126,128,127,127,107,119,95,101,113,118,119,121,131,123,87,132,131,120,121,140,135,124,127,128,107,119,118,107,106,114,104,101
106,121,120,121,138,144,141,110,141,129,128,126,124,124,143,150,127,120,121,124,120,119,113,130,120,121,119,116,114,95,146,136,108,115,117,110,109,100,93,99,119,118,119,128,143,126,120,115,112,123,119,105,158,155,111,99,151,126,126,131,127,115,41,141,111,120,119,114,116,127,112,109,114,116,118,118,118,119,113,101,117,124,122,121,120,119,126,113,132,121,121,123,122,122,125,134,114,121,121,121,120,119,118,115,123,125,122,122,120,120,129,116,104,113,114,119,128,124,138,116,138,121,123,114,98,108,134,127
117,127,123,117,128,122,111,96,117,119,118,127,122,116,114,132,128,122,123,124,122,122,124,119,111,120,119,107,108,117,107,115,124,121,121,119,102,117,127,133,115,118,117,116,111,104,130,133,124,127,126,130,145,141,144,110,125,123,123,123,126,132,132,133,109,119,120,124,121,120,125,114,125,120,121,120,120,117,126,117,115,117,119,119,119,126,142,116,109,120,118,112,120,122,119,117,128,122,119,116,124,123,105,112,132,124,125,124,120,122,122,94,149,131,125,115,143,130,116,104,102,121,118,118,119,116,119,97
118,115,118,121,122,122,124,115,131,121,121,137,162,123,111,112,119,124,125,126,141,124,106,101,113,122,120,122,117,121,117,130,145,124,121,120,119,128,105,116,122,123,123,120,123,126,167,132,119,123,122,125,139,162,131,124,115,116,120,131,84,114,112,127,130,125,125,129,126,140,125,96,119,122,122,121,119,119,116,104,127,124,124,129,146,180,112,102,118,123,120,123,127,124,140,119,115,117,118,114,117,117,114,80,109,117,116,109,101,120,103,88,137,123,124,152,146,112,122,6,106,118,116,116,129,125,104,0
134,127,125,123,122,120,90,0,109,118,119,120,121,120,85,0,125,121,121,122,119,121,120,0,119,119,120,122,126,119,118,0,123,119,117,114,118,127,83,0,107,120,120,111,95,97,120,44,119,121,119,114,105,113,102,77,114,120,119,120,120,120,122,96,126,121,122,124,124,125,136,106,111,121,121,122,121,117,106,112,132,122,120,113,132,140,149,115,115,120,119,112,104,104,113,116,117,122,119,114,115,123,155,117,139,126,122,120,122,121,135,118,117,120,121,121,121,121,115,120,118,115,117,121,120,118,109,120
108,122,121,122,121,121,119,119,123,122,122,122,125,131,126,119,117,120,122,139,180,189,141,119,112,122,122,124,132,123,110,119,125,121,121,121,120,127,130,119,113,122,119,119,117,117,141,119,119,119,120,118,120,119,122,120,118,120,120,123,122,121,145,120,111,118,118,115,118,118,148,119,129,126,123,120,128,127,99,120,129,124,123,134,129,141,144,119,116,121,126,170,143,126,133,120,115,121,120,119,120,119,112,120,116,118,120,116,123,123,132,120,114,118,119,123,142,99,126,120,123,125,122,128,123,124,170,119
114,121,121,120,123,125,123,120,119,121,120,122,92,103,119,119,122,121,122,123,135,116,130,120,121,123,121,128,131,124,132,120,132,123,120,113,116,102,120,121,85,115,120,122,121,120,109,119,155,124,123,118,119,113,132,120,120,128,124,118,127,133,113,120,99,118,119,120,121,127,134,119,116,117,116,112,115,119,112,120,125,123,120,120,116,104,129,119,119,122,121,118,107,111,123,119,120,126,122,124,127,126,107,120,113,118,118,116,126,112,117,120,116,122,123,115,174,150,122,120,133,124,122,130,137,136,122,119
111,117,117,117,133,136,113,120,119,122,123,130,123,131,137,120,115,120,120,122,124,124,139,120,125,124,122,121,108,78,132,120,131,124,124,120,102,108,105,121,122,123,121,120,121,107,126,119,124,124,124,123,117,119,160,119,112,118,118,120,119,115,110,120,128,123,123,119,104,130,129,120,114,120,121,120,111,116,120,120,116,123,121,120,119,120,119,120,135,122,120,120,119,118,117,120,120,122,121,115,118,120,122,120,116,120,119,111,121,122,135,120,123,119,121,125,123,130,119,120,114,120,119,115,102,116,130,120
124,127,122,114,117,114,99,121,124,117,121,127,151,142,140,120,128,120,119,108,88,103,113,120,126,124,122,132,129,124,142,119,118,123,122,125,122,119,114,120,119,121,123,133,122,116,107,121,108,117,120,120,121,121,99,121,166,130,125,123,122,121,146,120,108,119,119,118,109,108,98,121,122,122,122,124,115,122,122,120,116,120,119,128,121,113,126,119,112,119,119,120,120,120,134,120,124,120,119,120,118,117,115,120,114,120,119,119,104,111,128,120,125,122,120,123,124,117,110,120,120,120,118,119,123,116,127,120
122,121,120,122,118,98,115,119,117,124,123,158,155,124,127,120,118,118,119,119,118,117,104,120,119,120,123,128,125,125,141,119,115,122,120,119,113,110,105,121,139,130,127,127,130,134,152,120,120,123,123,122,122,121,156,120,114,118,117,121,121,121,125,120,125,122,121,128,94,93,87,121,120,125,123,124,128,132,125,120,120,121,120,122,122,121,129,120,112,121,121,123,122,120,119,120,122,119,120,122,122,124,124,120,112,121,121,122,120,139,117,121,129,124,122,123,123,105,117,120,107,119,120,122,117,110,118,120
135,123,121,126,120,125,94,120,114,122,122,122,85,68,115,119,127,123,122,122,121,119,94,121,121,121,123,126,129,128,142,119,124,121,121,121,121,127,156,120,126,123,123,128,146,158,152,119,122,125,120,124,119,121,127,121,113,120,121,122,125,120,110,120,132,121,122,123,133,127,155,120,121,123,121,120,118,120,119,120,124,124,121,121,107,118,117,120,119,121,120,122,161,160,125,119,113,119,120,117,116,121,126,120,118,120,122,125,121,119,130,120,117,118,116,116,119,121,124,120,119,124,125,123,129,150,124,120
115,121,120,121,119,121,124,120,116,119,120,121,123,122,123,119,118,121,122,120,102,113,126,120,118,121,119,123,121,124,109,121,122,121,121,124,119,113,104,121,122,124,122,123,133,124,123,120,115,121,121,120,121,105,113,120,124,123,121,120,105,123,125,120,124,122,122,124,124,122,118,120,114,118,118,119,119,119,123,120,120,118,119,117,122,121,123,121,117,122,116,113,114,122,127,120,131,121,121,123,120,121,120,120,115,120,118,116,110,98,87,121,115,122,123,130,151,106,119,119,118,123,123,121,116,118,120,121
129,121,120,121,120,122,126,120,118,121,122,121,120,120,121,121,115,119,120,121,128,118,121,120,118,119,119,119,105,107,112,120,123,121,119,112,113,117,135,120,131,123,124,128,135,128,110,120,127,124,123,126,125,125,125,119,115,120,120,120,118,115,81,121,123,123,122,122,121,121,118,120,119,120,120,121,120,119,134,120,115,118,120,117,105,85,103,121,116,121,120,122,122,126,114,121,122,119,118,121,112,113,115,121,122,124,123,125,112,109,119,120,116,121,120,119,118,116,101,121,117,120,118,116,111,125,41,122
111,119,122,118,102,114,100,120,130,121,120,122,115,129,104,120,118,125,123,126,124,127,120,121,124,122,123,126,124,122,122,120,111,117,120,125,120,106,117,120,122,123,123,124,134,158,125,120,126,123,122,122,121,118,120,120,137,123,120,125,123,123,113,120,117,118,120,122,122,126,136,119,122,123,121,105,105,113,103,120,107,119,120,123,125,119,112,120,127,122,122,121,121,134,136,120,119,119,119,120,121,120,123,119,114,123,123,122,119,121,114,120,136,122,120,121,121,124,118,120,113,117,121,122,124,121,119,120
122,122,121,121,106,98,102,121,121,121,121,123,109,83,127,119,112,117,117,117,106,110,118,120,132,128,126,127,146,122,115,120,121,120,120,120,120,127,125,120,119,122,123,123,121,118,116,120,117,120,121,118,114,115,94,121,114,117,117,112,120,115,141,119,123,125,122,120,94,113,118,121,127,122,123,121,123,125,124,120,120,119,119,137,119,106,108,121,116,119,118,115,110,107,136,120,107,118,117,121,121,120,119,120,124,119,121,121,120,120,122,120,120,121,118,119,118,123,95,121,110,118,121,132,135,120,118,120
125,124,123,123,122,123,137,120,115,121,120,121,122,123,120,120,124,121,120,118,100,116,112,121,120,124,122,128,131,124,124,120,123,120,122,123,123,125,138,119,118,121,122,123,135,138,116,120,117,120,120,123,123,125,116,119,124,120,118,121,131,118,102,121,124,122,121,122,138,158,122,120,125,124,122,125,122,124,110,120,116,117,120,121,120,123,113,120,119,120,120,122,125,120,119,120,125,127,124,126,124,120,118,120,114,120,121,126,115,115,76,121,125,124,122,128,134,120,111,121,118,118,118,114,113,118,111,120
121,122,123,126,132,108,112,121,125,120,119,112,119,120,118,121,121,124,122,122,122,122,123,120,127,123,122,121,121,123,120,121,118,117,118,116,120,118,119,121,114,119,118,118,116,117,108,120,125,124,123,124,120,119,123,120,114,121,120,122,121,117,111,120,130,123,120,122,122,123,118,120,111,116,119,122,120,114,139,120,117,121,121,119,120,114,123,120,123,122,122,120,121,120,114,120,121,124,124,124,156,130,130,120,121,121,120,116,117,127,127,120,111,119,120,124,126,113,131,120,146,123,121,120,123,123,126,120
117,122,121,122,125,120,127,121,123,122,121,121,120,118,116,121,117,121,123,123,125,125,125,119,126,119,116,115,100,92,119,120,117,119,119,120,119,117,116,120,116,122,122,125,123,122,120,120,132,119,117,116,114,125,138,119,118,121,121,122,118,123,147,119,116,119,119,116,121,117,129,120,113,121,121,121,122,122,121,121,130,125,123,124,122,118,118,120,119,119,120,122,121,123,108,120,119,120,121,121,121,122,116,119,118,123,123,123,130,139,120,120,124,122,120,121,122,120,126,120,119,119,118,115,115,108,114,120
115,122,121,124,124,121,127,120,125,123,121,124,128,122,121,120,113,114,118,121,122,121,123,120,113,123,123,126,130,140,119,119,131,121,122,131,121,124,90,121,119,121,121,120,126,120,115,120,123,120,122,124,125,123,123,120,111,119,121,121,120,121,138,120,125,125,119,118,126,128,123,120,120,119,121,123,114,112,107,120,116,120,123,125,124,120,149,120,122,125,124,127,132,124,123,120,118,120,120,121,120,121,124,120,118,120,121,120,111,89,115,120,131,128,127,129,160,152,135,120,119,121,120,122,117,107,115,120
113,119,120,121,121,121,118,120,118,119,118,120,119,116,129,121,124,124,123,123,122,122,123,119,118,122,120,123,119,113,112,121,123,120,122,126,127,119,119,120,112,119,121,121,122,120,119,120,124,123,121,121,120,120,122,120,121,123,121,122,122,124,125,121,129,124,123,122,121,120,126,120,119,119,120,121,122,124,121,120,125,122,120,126,127,119,124,120,132,126,126,127,140,121,115,121,115,120,119,120,112,111,119,120,119,121,119,115,115,120,116,120,122,118,118,125,122,116,114,121,118,120,119,115,121,121,123,120
112,118,120,124,123,122,137,120,120,124,122,120,120,120,124,120,120,123,122,121,119,126,124,120,117,120,124,125,110,103,85,121,116,120,118,121,112,107,107,121,121,120,119,119,104,109,130,120,117,121,121,121,132,127,124,120,117,120,123,129,125,123,133,120,126,122,120,117,125,125,137,120,118,122,121,124,127,121,99,121,119,118,120,127,121,120,100,121,118,121,121,121,118,115,107,120,124,128,125,129,129,121,129,120,126,119,119,121,122,124,114,121,119,122,121,121,121,111,93,120,127,121,121,121,121,120,133,120
121,122,121,122,121,121,105,121,118,119,120,121,124,123,121,121,112,118,119,123,123,124,100,121,126,122,122,121,122,116,135,120,120,124,122,120,98,104,136,120,129,124,122,120,122,119,106,119,108,119,120,123,118,119,118,140,123,121,119,124,124,128,125,136,112,118,120,121,124,112,120,174,126,123,123,143,127,110,116,239,116,119,119,122,122,116,115,242,121,123,121,120,105,117,121,237,119,121,121,121,125,123,122,222,119,119,119,121,122,124,119,224,120,118,118,112,115,122,114,234,119,123,122,123,105,112,117,225
135,128,122,121,125,126,115,173,124,121,126,130,127,126,140,117,122,122,121,122,137,179,153,86,112,122,121,119,121,116,106,61,131,124,123,121,116,101,120,57,122,122,123,126,115,117,121,114,128,122,124,125,113,125,132,107,113,118,120,135,115,114,90,34,122,128,125,123,124,129,132,0,121,120,120,121,121,120,121,0,124,121,121,119,120,120,122,0,117,122,122,118,111,132,145,16,125,123,123,125,124,122,136,65,118,121,119,120,118,113,98,92,123,119,121,123,115,119,120,107,118,123,121,125,135,119,128,109
124,121,120,121,120,119,108,115,114,120,123,124,123,113,96,117,121,125,122,124,120,124,130,118,117,121,121,118,116,118,120,119,120,123,120,121,120,115,91,120,124,117,119,121,118,120,123,119,117,120,120,135,141,126,124,119,117,120,122,113,105,124,108,120,126,128,125,128,136,126,127,119,124,121,120,120,120,122,114,121,121,121,121,124,122,121,114,120,113,121,120,120,120,121,116,127,112,120,122,123,128,109,121,116,130,121,120,119,132,126,124,119,114,120,118,119,121,122,108,120,125,124,123,116,118,129,143,118
113,122,122,125,119,118,100,120,122,122,122,119,117,132,120,120,120,119,120,122,136,141,123,120,120,122,123,127,117,122,142,119,120,122,121,119,96,115,129,120,118,121,121,125,120,118,136,119,123,119,119,118,119,122,115,120,112,121,120,119,117,124,120,120,119,117,119,120,121,120,122,121,116,121,120,125,121,121,118,131,123,124,123,123,135,156,131,118,116,120,121,121,112,119,118,119,117,120,121,114,108,121,131,119,116,121,121,124,119,117,121,120,113,118,117,118,136,122,100,121,140,131,126,130,145,135,132,120
109,119,119,115,116,121,134,120,116,115,118,123,121,122,117,119,121,119,120,121,121,121,120,120,124,123,121,123,112,106,118,120,116,119,120,123,119,119,121,121,124,120,119,119,102,90,119,120,127,124,121,122,118,118,122,129,123,122,123,123,118,122,122,138,118,122,121,121,121,120,124,128,125,121,121,121,122,122,127,120,108,118,118,116,115,114,108,115,131,124,123,122,127,128,119,119,115,123,122,124,116,108,113,107,121,124,122,122,111,122,110,111,128,124,124,127,138,133,137,115,115,119,118,119,123,118,108,119
113,121,121,121,122,120,124,120,129,127,124,123,122,122,123,120,130,123,122,124,131,137,94,121,116,121,123,120,119,120,117,120,126,126,125,127,125,130,127,119,117,120,120,121,120,119,118,120,110,118,119,121,120,120,121,135,120,124,120,120,120,120,125,181,120,121,122,123,122,123,124,170,127,121,120,120,118,119,118,201,110,120,119,120,107,118,121,241,135,122,123,122,116,115,140,241,109,120,119,120,119,112,120,196,128,123,122,119,162,141,134,145,119,119,119,120,104,111,114,170,119,120,121,128,127,125,124,223
119,121,122,119,127,123,135,182,117,122,122,128,135,129,130,133,118,123,121,118,121,152,128,77,120,115,115,117,121,120,122,0,135,124,122,122,122,123,142,0,115,121,121,122,125,131,117,99,128,123,122,123,135,135,121,190,120,121,122,126,152,134,120,161,118,116,119,120,118,115,94,79,116,121,120,120,120,118,131,28,122,119,118,117,118,119,114,62,121,124,120,121,120,121,109,73,117,119,120,122,121,121,123,87,114,122,122,123,125,122,121,66,126,120,119,122,122,116,131,88,112,120,120,116,118,123,110,100
127,122,121,119,119,110,125,98,113,122,122,122,122,126,124,37,118,120,119,120,120,121,97,74,118,123,123,126,122,143,124,95,124,122,122,119,140,150,127,107,120,122,122,121,119,125,120,114,115,119,118,114,109,120,120,116,119,120,119,120,118,115,109,119,127,126,124,122,120,121,120,119,114,121,122,130,122,117,134,118,126,117,117,117,122,123,122,138,117,121,122,122,121,129,140,117,122,122,122,123,118,111,119,112,129,128,124,111,127,116,123,157,115,119,118,120,118,117,114,198,115,119,121,122,121,123,135,166
127,120,120,121,121,121,103,164,114,122,121,123,136,126,119,142,119,123,122,121,116,129,117,95,117,118,118,123,122,121,123,69,125,122,121,121,122,125,128,62,123,122,123,125,123,119,118,67,116,120,121,121,114,107,132,94,116,120,121,122,102,126,117,108,124,127,122,121,120,123,121,114,118,117,119,121,124,119,119,117,120,120,119,122,120,122,123,119,120,120,120,119,132,127,122,120,119,121,120,121,108,107,117,119,118,119,119,115,120,121,147,124,118,120,118,117,118,111,68,121,144,126,123,127,147,127,135,119
108,121,120,129,130,123,123,120,114,119,119,122,125,121,117,135,126,121,121,121,121,121,123,150,118,122,120,120,121,122,114,123,121,118,119,126,126,118,117,113,118,119,118,123,137,132,119,101,123,121,123,129,128,127,132,111,124,122,119,117,118,122,113,117,114,124,120,121,120,118,117,119,122,120,120,120,120,120,123,119,103,117,118,120,117,107,118,117,127,122,121,121,116,117,119,157,116,121,120,121,121,124,128,223,111,118,119,119,118,119,117,216,132,124,122,119,138,132,77,124,117,119,121,131,132,120,132,124
116,120,120,119,97,100,121,160,117,120,119,119,125,121,128,128,126,118,120,114,124,123,122,16,114,120,120,123,127,125,134,34,118,119,119,121,120,119,118,78,126,124,122,126,117,107,123,100,125,123,123,121,117,116,121,110,117,117,119,123,122,122,111,149,121,122,121,122,124,117,118,146,122,121,122,123,122,122,120,118,111,120,120,124,126,124,118,90,136,127,123,118,94,114,119,106,117,119,118,114,115,127,130,113,113,118,120,122,121,122,120,116,118,120,121,122,122,123,132,119,125,124,122,124,124,124,125,118
118,122,123,129,126,101,114,121,118,126,124,124,122,118,136,119,115,115,117,122,125,129,125,119,116,116,120,121,120,118,120,120,126,124,122,123,121,122,124,119,112,120,119,120,118,114,79,120,123,121,118,117,130,134,82,120,121,123,122,123,108,120,135,119,135,122,122,124,146,125,122,121,109,121,119,121,119,118,117,121,124,121,120,117,119,119,118,120,120,121,120,121,124,128,110,128,126,124,123,123,124,142,115,122,130,124,123,123,118,118,121,108,122,124,122,122,122,122,115,116,113,116,118,121,121,120,120,117
120,122,121,121,123,124,124,118,112,121,120,122,122,121,110,119,136,128,127,142,151,161,126,119,115,118,119,119,119,113,93,120,119,120,121,123,123,122,120,120,126,120,121,123,122,123,124,120,127,122,122,122,121,120,126,120,114,115,119,121,120,113,143,119,121,123,123,119,128,125,124,120,130,124,122,121,120,131,106,121,128,125,123,123,122,124,140,120,119,122,122,127,125,122,124,120,123,119,120,119,109,119,127,119,127,123,123,117,97,116,122,120,113,118,118,119,116,115,141,138,120,122,121,121,122,125,131,116
137,125,123,123,122,122,123,109,111,121,120,121,121,121,117,169,116,121,120,120,118,119,119,219,117,118,118,119,132,128,123,232,122,122,118,114,124,120,116,143,120,119,121,125,123,125,121,54,121,124,121,122,120,126,117,20,118,119,118,122,97,106,122,52,131,124,123,126,119,120,190,117,111,115,117,116,118,110,79,215,112,123,121,123,121,121,129,237,125,121,120,118,121,124,122,181,117,119,118,121,112,110,110,79,122,121,120,121,124,120,126,18,116,121,120,122,122,121,120,25,120,117,119,123,122,120,121,61
131,124,121,121,115,111,124,91,116,120,120,120,117,114,107,106,132,124,123,122,121,123,128,113,115,121,120,121,121,123,105,117,124,121,122,123,123,124,129,119,108,115,118,120,113,109,126,119,116,126,123,121,153,134,160,119,121,123,123,134,122,127,112,120,118,121,121,120,121,121,125,120,116,119,119,128,119,125,145,120,117,124,124,124,121,120,129,119,119,119,119,122,124,125,121,120,114,121,119,120,119,117,118,120,125,120,121,122,122,105,119,120,113,124,121,117,117,122,119,120,132,125,123,119,113,118,133,120
123,120,121,120,145,121,124,155,119,120,121,121,118,109,124,167,124,127,123,130,121,115,131,88,123,120,121,116,115,120,112,91,116,119,121,122,121,120,131,107,112,121,121,121,124,119,120,114,130,122,120,125,127,118,83,119,130,124,125,120,127,135,139,118,112,121,120,122,120,119,120,119,139,123,121,121,120,120,123,119,112,118,120,120,120,119,116,119,123,122,122,122,127,126,124,150,117,123,120,122,121,118,119,142,121,120,122,125,139,141,126,128,118,117,119,120,122,117,116,191,113,124,120,121,122,121,119,214
110,119,120,122,121,116,121,154,127,123,122,135,132,129,132,179,114,122,121,121,121,124,119,214,122,120,119,124,168,154,85,195,127,125,123,122,125,124,131,170,124,120,120,121,121,122,117,3,123,122,121,121,120,115,86,26,119,117,119,127,124,120,135,5,123,121,123,129,133,121,119,95,116,123,122,133,116,126,117,193,117,120,120,129,125,124,117,200,118,122,121,121,123,122,121,189,128,124,120,108,101,124,121,172,122,122,126,123,131,140,116,89,113,120,118,119,117,119,117,37,119,120,120,121,121,119,120,0
122,122,120,114,118,131,123,34,127,124,123,123,127,122,118,77,124,120,120,119,119,114,114,98,119,121,121,123,122,121,123,108,113,120,121,122,120,120,112,114,125,122,120,120,135,126,132,117,114,124,123,128,119,105,107,119,126,123,122,123,124,126,133,118,120,120,120,120,119,116,113,120,116,121,121,115,111,114,148,119,121,124,122,123,104,113,127,119,120,121,120,111,102,106,114,120,137,121,122,124,120,121,114,120,117,119,119,122,121,121,115,120,107,119,119,119,117,116,114,119,121,119,118,115,116,112,109,121
123,123,123,122,130,150,174,118,122,121,120,121,123,123,143,120,123,122,122,128,128,120,118,120,121,121,121,121,121,121,118,119,107,119,117,118,109,113,92,121,135,126,124,122,128,125,118,133,123,120,121,120,121,122,120,223,116,120,121,120,120,116,112,203,119,119,120,134,142,120,107,132,120,119,121,120,117,119,126,101,127,122,120,121,120,121,121,155,114,122,123,135,131,118,120,114,125,120,120,117,121,125,123,39,129,122,121,121,123,120,120,52,119,123,122,121,113,118,126,87,119,120,120,121,128,98,116,104
124,122,121,124,128,126,126,112,114,119,119,123,123,121,120,116,121,123,121,121,120,114,130,118,115,119,121,121,114,109,127,119,129,124,122,119,107,122,119,119,116,120,119,130,118,120,117,120,119,121,123,133,136,120,115,120,115,118,118,116,119,117,71,129,133,127,123,125,122,121,129,118,115,121,121,122,113,110,116,119,124,122,121,123,123,120,120,119,113,117,117,119,119,121,119,120,121,121,121,118,115,121,129,120,120,122,122,119,116,120,120,121,116,123,121,121,122,121,122,120,123,123,122,123,121,120,122,120
124,122,122,120,123,121,119,121,117,121,120,126,134,122,121,120,106,120,121,121,113,112,117,120,130,117,120,119,119,120,121,120,117,123,122,124,122,122,127,120,115,123,121,122,121,118,115,121,110,121,121,122,120,121,122,120,124,122,121,122,121,121,126,120,109,119,121,123,119,123,116,120,134,126,125,124,153,153,159,119,112,118,118,118,122,127,100,120,124,120,121,118,121,123,134,120,115,119,119,116,119,122,67,121,118,122,122,117,100,115,121,120,126,124,124,132,126,163,142,119,126,122,122,116,129,124,122,120
122,122,121,122,117,119,122,121,121,121,121,123,122,121,111,127,111,121,118,112,107,103,112,126,126,123,123,119,110,117,133,146,116,120,120,121,120,119,116,188,119,120,120,122,121,121,116,151,115,121,121,122,121,126,93,89,122,120,122,124,119,120,133,62,130,127,123,124,130,134,133,92,116,120,120,123,121,120,131,107,120,123,125,129,123,122,121,114,116,119,120,123,122,121,129,118,119,121,120,119,119,128,124,118,123,123,124,120,86,128,126,118,119,123,123,122,114,104,124,119,119,121,119,127,126,120,121,120
107,113,118,121,122,122,116,119,151,130,126,132,128,113,134,120,122,125,124,136,123,119,120,138,115,119,118,119,118,118,116,178,120,121,120,122,121,124,118,167,138,128,125,138,139,136,100,133,113,119,121,126,125,118,120,97,124,124,124,125,124,120,143,88,114,118,119,120,121,120,118,82,121,124,125,125,125,121,120,102,129,125,122,120,96,108,130,111,151,127,124,122,115,112,116,116,106,120,121,133,144,122,119,117,125,123,122,122,120,121,123,119,116,120,121,117,117,120,119,119,122,123,122,127,124,114,122,120
134,125,123,124,136,125,134,120,119,121,120,121,118,122,129,121,116,118,120,121,124,121,117,120,118,123,122,122,123,125,129,120,132,120,121,125,122,118,123,134,110,119,118,120,117,111,113,198,116,122,121,120,119,119,117,147,118,119,119,120,123,123,113,55,114,115,119,131,143,168,132,88,134,129,124,122,138,164,127,105,127,125,122,122,122,123,108,114,129,121,120,117,122,121,125,117,115,121,119,122,121,118,120,119,125,121,122,119,123,130,136,120,119,121,119,117,116,115,113,120,106,120,120,118,109,108,88,120
114,121,120,112,109,120,114,120,142,126,124,123,123,125,129,120,113,121,121,115,116,122,118,120,119,123,120,119,116,123,121,120,121,119,122,130,139,147,135,119,116,118,118,120,122,121,109,120,116,120,120,119,120,122,114,121,129,127,123,123,120,122,128,119,118,121,120,115,117,119,112,121,118,120,121,129,130,117,142,120,117,122,119,117,111,111,112,121,118,116,118,119,127,121,121,120,115,121,120,121,119,118,127,120,125,126,121,122,123,122,118,121,124,120,119,119,126,121,102,120,128,125,126,121,128,126,117,120
132,122,120,122,124,125,137,120,112,115,118,121,119,114,80,121,118,118,120,122,122,122,123,121,121,123,122,122,119,121,125,120,124,123,123,121,106,118,127,120,114,123,121,119,117,118,146,119,127,126,121,122,121,122,112,121,116,116,119,121,121,119,118,120,125,122,123,128,145,131,130,120,120,122,120,119,107,99,116,120,124,122,120,113,115,123,122,120,126,121,121,117,120,125,125,120,113,119,118,114,113,118,113,120,115,119,121,124,116,115,109,121,122,121,121,124,122,122,122,120,120,123,122,123,121,120,128,120
119,120,119,120,116,109,113,120,120,121,120,120,119,119,114,120,126,122,122,122,121,121,125,120,116,124,121,122,122,121,119,120,114,119,121,122,121,121,120,120,117,118,118,121,122,122,119,120,123,123,121,116,118,129,119,120,123,122,122,124,134,124,132,120,128,121,122,127,135,139,142,119,114,119,119,120,121,120,119,119,125,120,124,124,123,118,146,120,115,122,119,119,135,130,99,121,125,122,121,122,125,124,129,120,118,122,121,123,124,121,129,119,110,115,117,116,117,117,100,120,139,124,122,118,104,116,127,120
118,123,123,123,116,116,121,120,111,120,121,121,118,119,125,120,132,123,121,124,123,122,126,120,117,122,120,122,122,119,116,120,117,121,120,117,116,115,101,121,120,121,124,148,133,120,120,120,111,119,118,118,123,139,122,120,143,127,124,128,127,123,132,121,115,119,119,121,116,115,87,121,119,121,120,120,127,119,146,120,118,124,129,152,119,108,121,120,118,121,119,112,108,113,114,121,122,122,120,118,121,120,125,119,110,112,118,121,110,117,115,120,115,119,117,112,117,119,108,120,131,124,123,121,120,122,130,120
