-0.9524036173250832
-0.1749444153615305
-0.7020828480518877
-0.9204011100814435
-2.1947718919094306
-1.2837728470622185
-1.2049213849848688
-1.1488785123508223
-0.6937583263035887
-0.7704456363697396
-0.8331194214667446
-0.5073229806081125
-0.6378729379067506
-0.37734731930453913
-1.291778876551192
-1.2655133210146419
-0.8590280315461406
-0.9030271480099035
-0.9385100014392935
-0.22814752099070346
-0.05095139675748829
-0.6726050613499631
-0.8017304943325433
-0.16153864885477087
-0.40254228408682896
-0.23345168830366894
0.629230089369927
0.9140684350684107
0.7320302117889701
0.927631208851381
0.6881802440536307
0.48233211535264814
0.6827400283678676
0.8344682543792461
0.9434087151339067
0.27930794163116957
-0.2415956478141727
0.47535067628942296
0.31173739772673176
0.9210495527383413
1.3914449290163737
0.6307059835920428
1.1269317858440877
1.1408895013024267
1.138506787713307
1.1259974562325072
1.845461562174108
2.0227169707103347
2.1328157578223728
2.5604560111372923
2.4966689560196227
1.679563778534515
1.0302639128824205
1.2758647036662192
0.7510796253363575
1.0974709665048088
1.3878632416442933
1.619829347115402
2.165165573964046
3.681834657517501
6.2982642126017145
0.8704486397914266
2.4790606288500747
3.0369839818576283
4.571784191475935
1.309423641703988
2.0667104479397786
2.3297197122721225
2.9177046451687576
0.7940976240877196
2.470151009906378
1.227927513387482
3.2161645555088825
3.6659525946497524
1.3956477501160798
6.986841648428774
8.362746730703998
-0.6725222040184686
4.413277044381134
2.197515675660403
-2.853016123275032
-3.0019438678170394
-6.623761927941834
-0.4095094974071998
0.15485376097853387
-0.15907724589823113
-0.4240819244684736
-1.005829016358977
1.4974042722255207
2.698112071401347
4.665636068357745
1.6690029541418911
-0.015327352728610633
0.8963016450847994
0.5329165479848128
1.3672224014018208
2.7610364595877774
4.556240375894785
3.671629027221091
3.269573084222289
1.4401302498486834
2.223959220675975
4.703348409363723
3.2918357363412256
2.5078610823067042
3.7365510953396717
2.1112788294425617
1.5753872969169163
1.5600403707003778
0.8479361714762925
-0.037684244504744724
-0.6732495971360496
-0.36308017668907244
-0.4276483782807693
-0.4344322594772636
-0.7728833807292942
-0.26722524481221066
0.5213776598732931
1.1367177973239078
1.2250964795268204
0.8943197670099785
0.9831237791686608
1.0405278740369497
1.8109202913606104
1.6543856380170454
1.5035687891390828
1.368344859391082
0.516336627127515
0.5953438164363345
1.0460604862791363
1.406399604520071
1.6810512997109563
1.5110985413230098
1.3631955711659267
1.9783371800618006
1.710488411559048
2.222312353116983
2.6072251933042305
3.618806545887291
2.892429642861235
2.283494469824624
1.7970849689813935
1.7953616833640664
1.8105333385962354
1.8351655339428237
1.495126851879038
1.6098016294428268
1.3445144100068736
1.1496614716172877
1.3834430387689955
1.5800212364247885
1.3688069777263872
0.8374745799541983
0.8041816868304243
0.061349642776561075
0.6141186510604216
0.7045185684934533
1.1537531163436947
1.1359135167556715
0.7451658013690434
0.4392740743028256
0.21125780047907033
0.7878950362190232
1.248242135192026
1.2299103926656156
1.2000697240117895
0.7966480215432394
0.4786644998657679
0.23988473411117867
-0.2986065968330519
0.04307963040871676
-0.033863108851810056
0.6576250643420885
0.8321434795460703
0.9556564300968013
-0.06890368759221754
-0.13178570486692853
-0.5296992069402876
-0.08090274721044233
-0.44906056580712933
-0.3565723874906439
-0.2698517833984069
-0.19366273546869844
-0.49886231217233856
-5.892965054268997
-1.1734669026002118
-1.809883096029636
0.27458161784033064
-0.32558090328615974
-0.46882683473483633
-0.6014644531720239
-0.7168661427201074
-1.180903572485759
-2.276310855289047
-0.5240086264449961
0.1248722135583572
0.9727393726220048
-0.2538006563268631
-2.3523910219587454
-2.861022719051263
-5.036602802315106
-0.3778669008925828
2.9396914419933524
1.011944138886002
-0.6032944511611731
-0.0494713721261969
2.595668476687855
1.2973522042570036
-1.627716055205311
0.8917138248237322
1.7820857527389633
1.7035868650343642
2.335498346673445
2.049858298177308
2.1547993519795727
1.4713778789409424
1.6603884095529404
0.7006384072637876
-0.040389582155757275
-0.5844568000783072
-0.5922646955350492
-0.9188216750080029
-0.7627453291212489
-0.9722943582379412
-1.8441594698520007
-1.0116723148040756
0.042412460616771064
0.4947249550628788
0.08305021309872684
1.2118454312699312
0.5918024467544254
0.07388374414198451
2.6110791725471514
3.086823090762629
2.2742093323563703
0.47443838215600964
0.9055873701868632
0.1586756030639982
1.0698222563151787
-0.04502705306815358
-0.1668069990514746
1.2443104987088818
1.2480634612172903
1.23072281301855
-0.27330187048080967
-0.3334048964572531
-0.34485799068724077
0.0439985813391327
-0.0032378879750649533
0.33588463728918744
0.2340585021336957
0.15117708952102832
-0.6505314740584286
-0.5265108671666201
-0.40638090379589764
-0.2982521135692041
0.16239506000193488
-0.21761252910604206
-0.15099503552938123
-0.0969411497907507
-0.05511370706942837
-0.02432839547695768
0.7344123902443208
0.945287145500475
1.0827624934948072
1.16297665083652
0.4632950196835446
0.27399622634814913
0.501405152124512
0.31590121562465057
0.5423763150593253
0.7217137559045437
0.48835695616140357
0.3022330837374489
0.16071652518532478
-0.3100808794458783
-0.2934331451434403
-0.2596083976486979
-0.5863134088580519
-0.8254363344070823
-0.9902679160526616
-1.463787907573456
-1.067959860205184
-1.839272032942863
-1.6810653390236407
-1.5270730656308484
-1.3879769086298919
-1.269336794393786
-1.1730374406368962
-1.0984936047344418
-0.6749209360289188
-0.35388768935882375
-0.4917830521611397
-0.6192187912026108
-0.7299257875572376
-0.8212754469601262
-0.8931463439012933
-1.6843820883863339
-1.5510602381047214
-2.5291665622047983
-2.5261513598408016
-3.2198149098322566
-2.9823514454383337
-0.9109530785272395
-0.398563991126242
-1.149476598740626
-1.0331992498900735
-0.5884676216794944
-0.6296318924646169
0.4210117139782156
2.3158152073036793
1.8818717684563058
0.7210201519323709
-1.7027858880424054
-1.362286372814197
-3.2512012856202723
-3.187360509403396
-2.684028634439363
-0.757718245308336
-0.7177867887430327
-1.8210597010120328
-1.584640402421915
-2.126305484583898
-1.0629405407307284
-0.22771221060761704
1.8718722247957336
0.49642453772381057
1.5623939930146906
1.980894184987876
0.7718719964501877
1.263105078192076
-1.3177128804483091
-1.8443057928620603
-2.189121841190834
0.18902180489337939
0.9665751155603072
-1.0412378049782585
-2.623342080077987
-0.12412126800672851
0.7547505795117098
3.6206537668963423
6.515272381351846
6.038760691706459
2.9156828095321883
0.025867310388073772
0.7516459184133627
0.6511108680678407
2.0901079415376094
-1.5631490225158893
-3.274882986213343
-1.1744171156809564
0.9314566943214506
-1.102672048736503
0.2529817203604008
-0.885028170028866
-1.402828748778834
-0.30242659099799374
0.20652597583433863
1.6969392547913187
1.3461027104088101
2.123718725540993
1.5782046612383795
-0.3663276519043146
1.0668383943321005
0.36123942101824813
-0.5610587958302813
-0.1515908758897394
0.19841177980921376
0.48306364955182957
0.7038415859657039
1.2354393546545255
1.2631063850088018
0.8909814876221026
0.9539470675702975
1.7347298264983286
2.3281810484889602
2.0188419085137554
1.7425995271824797
1.8778867802781458
1.6043117259799367
1.7522705913330658
1.4966761655767102
1.2958523700634739
1.1455625297261474
1.4078030741535446
1.251725992808591
1.133191439092806
1.0477761906894372
0.9900563039439284
1.3230933157163065
1.218441650136064
1.135017282339856
1.071622502874341
0.6572234365411868
0.7120740589209154
0.7695792371779139
1.192877473317508
1.155555288875797
1.1196335973877432
1.087450223362611
1.0601840385104173
1.0381885841992815
0.6525819799127313
-0.011394111140976437
-0.14043496281058618
0.1579443624274549
0.41322106468898334
0.6210034153022729
0.04491995382242786
0.33557876488314614
0.571867414429603
0.38637077247105434
0.6072513006336842
0.7779021535823254
2.0093420837045066
1.8388763565948476
2.0332921620570588
2.1533842885838155
1.8483266185194456
1.9570218120328018
1.6603711320005692
1.4206215353815006
1.604530026386897
1.383369856074215
1.5819739483666118
2.1092560891196
1.0381656611651398
1.3060874877235933
0.4243063376540728
1.9665749208151213
-0.1369248206507203
1.546341937429991
1.0399911499675123
5.061927661656318
3.72806214923505
1.8523878662291149
4.786391989569532
5.209486116974546
2.8791424468276574
-0.8231404018901451
-2.1764811093407284
-1.6215513998526736
-5.1184698145652465
-4.395808969766072
-1.0889643899413342
5.617496564823243
9.649718134556265
7.010673309059679
5.814176924123469
3.2810108060217535
2.7369294123602863
1.9662041673727009
0.6654921791832514
-1.0253698121230765
-5.567905509918589
-5.259871381760844
-4.806391310160723
-5.403179460127006
-4.641846409753704
-3.5826115545388246
-3.077386303311263
-3.410199252066345
1.1257503573738443
-3.1274040340738654
-2.0932176022534015
-1.6426906840926834
2.748347463889286
0.9350438913924579
5.665832235886877
2.2301424450614498
1.6193340614086393
0.367685179940916
0.8641222114397185
2.7425263276178815
1.6064079720667532
1.788126940164438
1.1823104661156014
1.8119683096586763
-0.6456150131394096
0.03770420283299436
2.4684391445996914
0.6761888644735725
0.3586830415634358
-4.294497455032173
-4.1574938636622765
-5.374322553976992
-5.45486397204659
-3.1779965568583908
-2.4352187828566594
-1.8522573193159593
-1.416509433986326
-1.108321957206747
-0.16777965145204998
1.2561564065318032
1.1876054300111698
1.0499667695891228
-0.22641064488451534
0.22216370603738922
0.19847173441494237
0.16774504615971425
0.5037049304112196
0.7552342617010681
0.19610352318382063
0.4854524920515034
0.7090059654624503
0.873259342832866
0.24965238535412837
0.49404189479334265
0.31984308305264986
0.1844557718787871
-0.28435836267774195
0.1001839369621243
0.04575958673206297
-1.098293957712936
-1.602964891174806
-0.8470582294246287
-0.9604580895270632
-1.0351907885288685
-1.0795744731034793
-0.3638993142849737
-0.1724010984901117
-0.037807476418712016
0.05016732521059668
-0.26696532256594663
-0.15673267778199393
-0.4433743520626829
0.06881057510167099
0.09746154414170403
-0.6295671154496757
-0.46006578962122097
-0.3165026351886928
-0.5694077394575447
-0.02591043848718466
-0.3386517453090772
0.14873536483776328
0.1553806876564981
-0.22145612947194
-0.1525314898328579
-0.09689899178701994
-0.422764587951216
-0.30566610329019245
-0.20745344701878318
-0.8663397621461366
-0.6350064095726536
-1.5445667641906646
-1.1283676357069137
-1.1446469729736752
-0.7747450912679557
-0.8483496836900501
-0.9068666862310006
-1.6885817808224108
-3.023660881321126
-2.1801137022005497
-1.1056630290096137
-0.6287278886784295
-0.6463627510426577
-1.0542805070781283
-0.6495743827722611
-1.079838338657306
-1.7932678391688943
-1.233488006649232
-1.5194568000089226
0.10525694261580143
-2.325899343090173
-1.6512994654709985
-2.2002697639857645
-2.6103850081207267
-3.2689396311828136
-2.268035625096049
-1.4559438597331162
-0.45889051805217274
-0.8195794249369344
-1.5097641807005493
-0.2204628991991464
-0.3361407489472478
0.27545571177642714
0.7191337923451692
0.6528638545410097
0.19046698310527665
0.17264693250736862
-0.5896933929536388
1.0290921725862434
0.0749901936399533
0.41384252959151263
2.1490831002441295
1.258966853336647
0.8862237697289207
-0.5255680493044925
-0.13871304164038623
-1.6474408831049565
-0.9434131899520075
-2.925340490581668
2.215496981487812
6.975780897830694
6.114889038444145
4.8757603683742925
2.3107867760300427
1.744259030552437
1.6961532968443729
2.0586119928203495
1.6248627813085665
1.670068615748269
0.6187635938061061
0.9324999155227243
0.8466981568188422
0.8047109667265515
0.7937206173293949
-0.6715729157689933
0.4304791573396065
-0.5130497757354763
-0.48948595565461217
-0.8044038516692898
-1.3874432674359771
-0.6981360280723753
-0.12804109015112475
0.32149645022086415
0.6592063338626997
1.2681713493288784
1.34208065447724
0.6241879298972113
0.7792947256222345
0.8947519657141254
1.3446905023599989
1.3121243623790944
2.3728238581533305
1.697000528898191
1.8728809672920597
1.9940169743921714
0.964908312988161
0.8964681966646231
0.1241145807750973
-0.0841133656085801
0.8971715918831015
1.6837510017668431
0.8101671091442721
0.8522069131695811
1.2591764436682404
1.2062779220554378
1.5251787845313147
2.132918599783391
3.6915461157914335
3.0155163789727926
2.4285861746149426
1.5758541254029574
1.6496753813083915
0.9867423056809204
0.4898217066175099
0.5058763005959027
0.5552725090867091
0.6217929477661813
0.32515246071669246
0.11204418315703958
0.3372897955321728
0.5321462454834447
0.32364894333422556
0.53499241810832
0.3366774574226733
0.5534140001013003
1.0944126432946786
0.7705335987427246
0.8735276644890808
0.9485981216886162
1.0000752798323178
0.6638812453988299
1.5049473564287714
1.4173411316730093
1.3288741759024456
1.6155792819330492
1.0897518139586042
1.0398895072276393
1.005241318457203
0.9829509915381504
2.0762923022099726
1.813323476643868
2.320057407049908
2.325304206684368
1.9340831666247384
0.5068232798749284
1.6187120006827374
2.1411821453402125
1.0645171454217117
1.3268259044361495
1.1772259493426227
1.068699913985592
0.25735479323718313
0.3826106293282997
0.5107411842501647
0.9991922318268777
1.3870775090952099
0.9432821365272596
0.9568456015534588
0.9688372466105801
0.9788837809866475
0.61821780159187
0.7100900610651553
0.7911251454803211
0.8588799096164292
0.9128671535949477
0.21650062562980743
0.048903813227201824
0.3078982715932217
-0.2109764359053233
0.1361313581428225
0.42390416864773134
-0.4547059371791274
-0.026107406947258327
-0.042683944152241464
1.4249876793958467
1.8187745747742075
3.1878358194077405
2.352697472694582
2.00721530128653
2.4464517012675246
1.6616711163315632
3.2463176078872675
2.990776039297585
2.3820404943246
1.8879270221790547
0.030690791570650466
0.460819236912662
0.8546612178393795
1.1943022423041967
1.4727391965174945
2.427786481173894
2.4182689709547245
2.379026769656525
1.2180780959078477
1.0462899031400974
-0.17189918072146648
0.7572205800776479
2.996732384209042
5.834706397238442
4.639136158386158
4.332580370032904
3.295794410529682
2.4588442946913722
1.8145533695312517
1.3430831310224667
0.6494914595044652
0.5286983083526526
0.4898873306131995
0.5059165590493501
0.5552935551799728
0.9904864814152858
0.6080683164335821
0.3183282639960586
0.4788048324969639
0.25284129522369597
0.45878413582369215
0.6318011178330335
0.03291186830033732
-0.05855911067188109
-0.1116531649628334
0.23238554977317533
0.5105729073503628
0.7250839535801035
0.5136649532818951
-0.029306427659368306
-0.4492184078931438
-0.7580770888516966
-0.23491327728581113
-0.1751987326801595
0.24510662639306924
0.2017451170904129
0.8957132701683688
0.6841936834173117
0.12760939759844836
-0.3133643826134443
-0.27762769372508195
-0.6016939424023171
-0.8379289168115557
-0.999944694018977
-0.7335455811457281
-0.5070801193433349
-0.6925054782009962
-0.46531281564480453
-0.6535977143474542
-0.4313017446950294
-0.6253803509893396
-0.7776703349068596
-0.5227920606519805
-0.6890316251745751
-0.4500027234630204
-0.2633454205294582
-0.4932682178776018
