120,122,121,121,121,121,122,121,121,121,121,122,121,121,120,120,121,120,121,122,121,120,121,120,120,122,121,122,122,121,121,119,120,115,121,122,121,121,120,120,121,124,121,122,121,120,121,120,121,121,120,121,121,121,121,121,121,122,121,122,121,121,122,121,120,121,121,122,122,121,121,120,120,121,120,121,121,122,122,120,120,121,120,122,120,121,121,120,121,121,120,120,120,121,121,121,120,121,121,121,122,121,121,120,121,121,120,121,121,121,122,121,120,121,121,121,121,121,122,120,120,122,121,122,121,121,121,120
121,127,121,122,121,121,121,119,119,114,120,122,121,121,121,120,120,125,121,123,122,122,122,120,120,120,120,121,121,121,121,121,121,121,121,122,121,122,121,119,119,121,121,122,121,121,122,120,121,122,121,122,121,122,121,120,120,121,121,122,121,121,121,120,121,121,121,121,121,122,121,119,120,121,121,125,122,121,121,120,121,121,121,121,121,121,121,120,121,122,121,121,120,121,121,121,120,121,121,122,121,121,121,120,120,120,120,122,121,121,122,120,120,121,121,121,121,121,122,120,121,123,122,122,121,121,122,121
120,121,122,122,120,121,121,120,120,122,120,122,121,121,121,121,120,121,121,122,122,121,121,121,121,119,120,121,121,121,122,120,120,116,121,122,122,121,120,120,120,123,120,122,121,121,122,120,121,122,120,121,121,121,122,120,120,120,121,122,121,121,121,120,121,121,121,122,122,121,122,120,120,121,121,122,121,121,120,120,121,122,121,122,122,121,122,120,119,120,120,122,121,120,121,120,122,123,121,120,121,121,121,120,120,121,121,125,122,121,122,120,120,121,120,121,121,121,121,120,120,121,121,122,121,120,121,120
119,122,121,122,121,122,120,120,121,128,121,122,121,121,122,121,120,116,121,122,122,121,121,119,120,124,121,122,121,121,120,120,120,122,121,122,121,120,121,120,121,121,122,122,121,120,121,121,121,122,120,121,121,121,122,121,121,121,121,121,120,120,121,120,121,122,122,122,121,121,122,121,120,121,121,122,122,121,121,120,121,122,121,122,121,122,122,121,120,121,121,122,121,121,121,120,121,122,121,121,120,120,121,120,120,122,121,121,121,121,122,120,120,121,120,121,121,121,121,120,121,124,122,121,121,121,121,120
120,116,121,122,121,121,121,120,120,124,121,122,121,120,121,120,121,123,120,122,121,121,122,120,120,120,121,121,120,120,121,120,121,121,121,122,121,120,121,120,120,122,121,122,121,120,121,120,121,121,120,122,121,121,121,120,121,124,121,122,122,121,122,121,119,120,122,122,121,121,121,120,121,122,121,121,121,121,121,120,121,122,121,122,122,121,121,120,121,119,121,122,122,121,121,120,121,121,121,122,122,122,122,120,120,122,120,121,121,121,122,120,121,120,122,121,121,120,120,120,121,123,122,124,121,121,121,121
120,123,121,121,120,120,121,120,120,120,120,122,121,121,120,120,121,121,120,121,121,121,121,121,120,122,122,122,121,121,121,120,121,123,121,121,120,121,122,121,122,120,121,122,121,121,121,119,120,122,121,122,122,121,121,119,121,122,121,122,121,120,121,120,120,122,122,122,121,120,121,120,120,121,121,122,121,121,122,120,121,126,120,122,121,121,122,121,119,117,121,122,121,121,121,120,120,122,121,122,121,121,121,120,120,121,121,122,122,121,121,120,120,121,120,122,121,121,122,120,120,121,121,122,122,121,121,120
120,120,120,122,121,121,122,120,120,122,121,122,122,121,121,120,120,120,121,121,121,121,122,120,121,123,121,122,121,121,121,119,122,123,121,121,121,121,121,121,120,121,120,122,121,121,121,121,121,122,121,122,121,121,121,121,120,121,120,121,121,121,122,120,120,122,121,122,122,121,121,120,120,115,120,122,121,121,122,121,121,123,121,122,122,121,121,121,120,123,122,122,122,121,120,120,121,122,122,122,120,120,121,120,121,122,121,122,120,120,121,120,119,120,121,122,122,121,121,119,121,121,121,122,121,122,121,121
121,123,121,122,121,121,122,120,121,122,120,121,121,121,122,120,119,119,121,122,121,121,122,120,121,121,121,122,122,122,121,120,121,122,122,122,121,120,121,120,120,121,121,122,121,121,121,120,120,121,120,121,121,121,121,121,122,127,120,121,121,121,121,121,121,117,121,122,122,122,122,120,121,124,121,121,121,121,121,121,120,121,121,122,121,120,121,120,121,121,121,122,121,121,121,121,121,122,121,122,121,121,121,120,121,122,121,122,120,120,121,120,119,120,121,122,121,121,120,120,119,119,120,122,121,122,121,120
121,122,121,122,121,121,122,120,121,122,121,121,120,121,121,120,120,121,120,122,121,121,122,121,121,122,121,122,121,120,121,120,121,122,121,122,120,120,121,120,120,125,121,122,122,121,122,121,120,115,121,122,121,121,121,120,121,123,121,122,121,122,121,120,120,121,120,122,121,121,122,120,121,122,121,122,122,121,120,120,119,120,121,122,122,121,120,119,121,122,122,122,121,120,121,120,120,122,121,122,121,121,121,120,121,122,122,122,121,120,121,121,120,122,122,122,121,121,121,121,121,122,121,122,121,121,121,120
120,122,121,122,120,121,121,120,121,121,121,121,120,121,121,120,121,123,121,121,121,121,121,121,121,122,122,122,120,121,121,121,121,122,120,121,121,121,121,121,120,122,121,122,122,120,120,120,121,122,121,122,121,121,122,120,121,121,120,121,121,121,121,121,120,121,120,122,121,121,122,121,121,121,120,121,121,121,121,120,120,120,120,122,121,121,122,120,121,122,122,122,121,121,121,120,121,121,120,122,122,122,122,120,120,122,122,122,121,120,121,120,121,120,120,121,121,121,121,120,121,121,121,122,121,120,121,120
120,121,120,121,121,121,122,121,120,121,121,122,122,121,121,120,120,120,121,122,122,122,121,119,120,122,120,121,120,121,122,121,121,123,121,122,121,121,122,120,120,122,121,122,121,121,121,119,121,122,122,122,122,122,122,120,121,122,121,121,121,121,121,121,121,121,120,121,121,121,121,121,120,121,120,121,121,121,121,120,122,121,120,121,121,121,122,121,120,121,121,121,120,120,121,120,121,120,121,122,121,121,122,120,122,122,121,122,122,122,121,120,119,121,121,122,121,121,121,119,122,122,121,122,121,121,121,120
120,122,121,122,121,120,121,120,120,122,121,121,120,120,121,121,121,114,121,122,122,122,121,120,121,125,121,122,120,120,121,120,120,123,121,121,120,120,121,120,121,120,121,122,121,120,121,120,121,122,122,122,121,121,122,121,121,122,121,122,121,121,122,121,120,121,121,121,121,121,122,120,120,121,121,122,121,121,122,120,121,122,122,122,121,120,121,120,120,122,121,122,121,121,122,120,119,119,120,121,121,121,122,120,121,121,120,121,121,121,121,120,121,123,121,121,120,121,122,121,121,122,122,123,121,121,121,121
120,121,121,122,121,121,121,120,121,123,122,121,120,121,121,120,120,121,121,122,121,121,121,119,120,116,121,122,120,120,121,120,120,124,121,122,121,121,122,120,120,122,121,122,122,121,120,119,121,122,121,122,120,120,121,120,120,121,121,122,122,123,123,121,120,121,121,122,121,121,121,119,121,122,121,121,121,121,121,121,121,122,120,121,121,121,121,121,121,122,121,121,121,120,121,120,119,121,120,122,121,121,122,120,120,121,122,122,122,121,120,119,120,122,121,121,121,121,122,121,119,120,121,122,122,121,121,119
121,124,121,122,121,121,120,119,120,115,121,122,122,122,122,121,120,124,120,122,121,121,122,121,119,122,121,122,122,121,121,119,121,122,121,122,121,120,121,120,120,121,121,122,122,121,120,119,119,120,121,122,122,121,120,119,121,122,121,121,121,121,121,121,120,121,121,122,120,121,121,120,120,122,121,122,122,121,120,120,122,123,122,122,122,121,121,121,120,119,121,122,122,121,121,119,120,122,121,122,120,120,121,121,121,121,120,121,121,121,121,121,121,121,121,122,121,121,122,121,120,127,121,122,121,120,121,120
120,116,120,122,121,121,122,120,121,124,121,121,121,121,121,121,120,122,121,122,121,120,121,120,120,120,121,122,121,121,122,121,120,122,121,122,121,121,120,120,120,121,121,122,122,121,120,120,122,122,120,121,121,121,122,121,121,122,122,123,122,121,121,121,120,122,121,122,121,121,121,118,121,122,121,121,120,121,121,121,120,121,120,121,120,121,121,121,119,119,120,122,122,121,121,120,120,122,121,122,122,122,122,120,120,122,121,122,121,121,121,120,120,121,121,122,121,122,121,119,120,121,120,121,121,121,121,121
120,126,121,122,122,121,121,119,120,114,120,122,121,121,121,121,121,125,121,122,121,121,122,121,121,121,120,121,121,121,122,121,120,120,121,122,121,121,121,120,121,122,121,121,121,121,122,121,121,122,121,122,121,121,122,120,121,121,121,121,121,121,121,121,120,122,121,122,121,122,121,120,121,122,121,122,122,122,122,122,120,120,121,121,120,121,120,120,121,123,121,122,121,120,120,119,121,120,120,121,121,121,122,121,121,121,121,121,120,121,121,120,120,123,121,122,121,121,121,120,121,123,122,122,121,121,122,121
120,118,120,121,121,121,121,121,121,123,121,121,121,121,121,120,120,123,121,122,122,122,121,120,121,122,121,121,122,121,122,121,120,122,121,121,121,121,121,121,120,121,121,122,121,121,121,120,120,120,121,121,121,121,122,121,119,122,122,122,122,121,121,119,121,121,120,122,121,121,122,120,120,121,121,122,121,121,121,121,122,121,120,122,121,121,122,121,121,123,121,122,122,122,122,119,121,122,121,122,120,120,121,121,119,117,120,122,121,121,120,120,120,123,121,122,121,120,121,120,121,123,122,122,122,122,121,120
120,121,120,121,121,121,122,120,121,122,121,122,121,121,122,121,121,122,121,122,121,121,122,120,121,118,121,122,121,120,121,120,120,123,121,122,121,121,122,120,121,123,121,122,121,120,121,120,119,121,121,122,121,121,121,119,120,121,121,122,121,121,122,121,121,121,120,121,121,121,121,121,119,120,121,122,121,121,122,120,120,122,121,122,122,120,121,120,121,122,121,122,122,121,120,120,120,121,121,122,122,120,121,120,121,123,121,121,121,121,121,120,121,122,121,121,121,120,121,120,121,120,120,122,122,121,121,119
120,122,122,121,120,120,121,120,121,123,121,122,122,121,121,121,121,120,121,122,122,120,121,120,121,122,120,121,121,121,121,121,120,122,121,122,122,121,120,120,120,121,121,122,120,120,121,120,120,126,120,122,121,121,121,120,121,116,121,122,120,121,121,120,120,123,120,121,121,121,122,121,121,122,121,122,121,120,121,120,121,122,122,122,122,122,121,121,119,121,120,121,121,122,122,120,121,120,121,121,120,121,121,120,120,122,121,122,121,120,120,120,120,123,121,121,121,121,122,120,120,119,120,121,121,121,121,121
121,122,121,122,121,120,121,120,120,121,121,122,121,121,121,120,121,122,120,121,121,121,121,121,120,121,121,122,121,121,122,121,121,123,121,121,120,121,121,120,121,120,122,122,121,120,120,120,120,121,121,122,121,120,121,120,122,122,121,121,121,121,121,121,120,119,121,122,121,122,121,119,120,122,121,122,121,120,121,120,120,122,121,122,122,122,121,119,121,122,122,122,122,121,120,120,121,122,122,121,121,121,122,121,121,122,121,122,121,121,121,120,120,122,121,122,122,121,121,120,120,120,120,121,121,121,122,121
121,122,121,121,121,121,122,121,119,120,121,122,121,121,121,120,121,121,121,122,121,120,121,120,120,121,121,122,122,121,121,120,120,122,122,122,121,121,121,120,122,122,121,123,122,121,122,121,120,120,121,122,121,120,121,120,122,122,120,121,120,121,122,121,120,116,122,122,120,120,121,120,119,121,121,122,121,121,121,120,120,122,121,122,122,121,120,120,120,121,121,122,122,121,121,120,120,121,121,122,121,121,122,120,120,121,121,121,121,121,121,120,121,122,121,123,122,121,121,121,121,121,120,122,121,121,121,121
120,120,121,121,121,121,121,121,121,122,120,121,121,121,121,120,121,121,121,122,121,120,121,120,121,122,121,121,121,121,121,121,121,121,121,122,121,120,121,120,121,121,120,121,121,121,122,120,121,122,121,121,120,121,121,120,122,122,121,122,122,121,122,121,121,121,121,122,120,121,121,120,121,121,120,121,121,121,122,121,121,121,120,121,121,121,121,120,121,116,121,122,120,120,121,120,121,123,121,122,122,122,121,120,121,122,121,122,121,121,121,119,121,122,121,122,121,121,121,120,120,121,120,121,121,121,122,121
120,122,121,122,121,121,121,120,121,120,120,122,121,121,122,121,120,121,121,122,121,121,122,120,121,122,121,122,121,121,122,121,120,121,121,122,121,121,121,120,120,121,121,122,121,120,121,120,120,120,120,121,121,121,122,120,121,121,121,122,121,121,121,121,120,121,121,122,121,121,121,119,120,123,121,122,121,120,121,120,121,120,121,122,122,121,121,119,121,121,120,121,121,121,121,121,120,122,121,121,120,121,121,120,122,123,121,122,121,121,121,121,120,121,120,122,121,121,120,120,121,122,121,121,120,121,121,121
121,122,121,121,121,121,121,120,120,122,121,122,121,121,121,120,121,121,120,121,120,121,121,121,120,121,121,121,121,121,122,121,121,122,121,121,121,121,121,121,120,121,121,122,121,120,120,120,120,122,121,122,122,122,122,120,120,123,121,121,120,121,121,120,121,121,121,121,120,120,121,121,120,123,121,122,121,121,121,120,121,119,120,122,121,121,122,120,121,122,120,121,121,121,121,121,121,119,121,122,122,121,120,120,120,121,120,121,121,121,122,121,119,121,121,122,121,121,122,120,121,122,122,121,120,120,121,120
121,122,121,122,121,120,121,120,121,122,120,121,120,121,121,120,120,121,121,122,121,121,121,119,121,122,122,122,121,122,122,121,121,121,121,122,121,121,120,119,120,121,120,121,121,121,121,121,120,121,121,122,121,121,122,121,120,122,121,122,121,121,122,121,120,121,121,122,121,121,122,121,120,121,121,122,121,121,122,121,119,120,121,122,122,121,121,119,121,122,121,122,122,121,121,120,120,117,121,122,120,120,121,120,121,123,120,121,121,121,121,121,121,123,121,121,121,121,122,120,120,122,121,122,120,120,121,120
120,121,121,122,122,121,121,120,121,121,121,122,121,122,122,121,121,122,121,122,121,121,122,120,120,121,120,122,121,121,122,120,121,122,120,121,121,121,122,121,121,122,121,122,121,122,122,120,120,121,121,122,122,121,121,119,121,122,121,121,120,121,121,120,121,122,121,121,120,121,121,121,121,122,121,122,121,121,120,120,121,122,121,122,121,120,121,120,119,118,121,122,122,121,120,120,121,122,120,121,121,121,121,121,121,128,121,122,121,121,121,119,121,118,121,122,122,121,122,121,120,122,121,122,121,122,121,119
121,123,121,121,120,120,121,120,121,121,121,122,121,121,121,121,120,121,121,122,120,121,121,120,121,122,121,122,121,120,121,120,120,121,121,122,121,121,122,121,120,120,120,122,121,121,120,119,120,122,121,122,122,121,121,120,121,121,120,121,121,121,121,121,120,121,121,122,121,121,122,121,119,121,121,122,121,121,121,120,121,121,121,122,121,121,121,120,120,122,121,123,121,121,122,121,121,122,121,121,120,121,121,120,120,121,121,122,121,121,121,121,120,123,121,122,121,120,121,120,120,119,120,122,121,122,121,119
120,121,120,121,121,121,121,120,121,126,122,122,121,120,120,119,119,117,121,122,120,120,121,120,122,124,122,122,120,120,121,121,120,122,121,122,122,121,122,120,120,121,121,123,121,120,121,120,120,121,121,121,120,120,121,121,120,122,121,122,121,121,121,119,121,121,121,122,121,120,121,120,121,121,121,121,120,120,121,120,121,123,121,121,121,121,121,121,119,120,121,122,121,121,122,121,121,122,122,122,122,120,120,120,121,122,121,122,121,121,122,121,120,121,120,121,121,121,121,120,121,121,121,121,121,121,121,121
121,123,121,122,121,120,121,120,120,120,121,122,121,120,121,120,119,118,121,122,121,122,121,119,121,123,120,121,121,121,121,120,121,123,121,121,121,121,121,121,120,121,121,122,121,122,121,120,120,122,121,122,121,121,120,120,121,122,121,121,120,121,121,121,121,123,121,122,121,121,121,120,119,120,121,121,120,120,121,120,121,121,121,122,121,121,122,121,121,123,121,121,120,121,121,120,120,121,121,122,121,121,122,120,120,121,120,121,120,121,121,120,120,121,120,122,121,121,122,121,120,121,121,122,122,122,121,120
121,121,120,121,120,121,121,121,121,121,121,122,121,121,122,121,120,121,121,122,121,121,121,119,121,123,120,122,121,122,122,120,120,119,120,121,120,121,121,121,121,127,120,122,121,121,122,120,121,119,121,121,120,121,121,120,120,123,121,122,122,122,121,120,120,122,122,121,120,121,121,120,120,120,120,122,122,121,121,120,121,122,121,121,120,121,121,121,120,121,120,121,121,121,122,120,120,122,120,122,121,121,121,120,121,121,120,121,121,121,121,121,120,122,121,122,121,120,120,120,121,121,121,122,122,121,120,120
121,122,121,122,121,122,122,121,120,121,121,122,122,122,120,120,121,123,122,122,121,121,122,121,120,121,121,122,121,121,120,119,120,120,120,121,121,121,122,121,119,116,120,122,122,121,121,119,121,121,120,122,121,121,122,121,120,122,121,122,121,121,121,119,121,121,120,121,121,121,121,121,121,121,121,122,121,121,121,121,121,121,120,121,121,121,122,121,120,121,121,122,121,122,121,120,120,122,122,122,121,120,121,120,121,122,121,122,122,121,121,121,121,122,121,121,120,121,121,121,120,123,121,122,121,121,121,119
121,121,121,121,120,120,121,121,119,119,119,121,121,121,121,120,121,121,121,122,121,121,122,120,121,123,122,123,122,121,121,120,120,121,122,122,121,121,121,120,121,122,121,121,120,121,121,121,122,124,121,122,121,121,122,121,120,116,121,122,121,120,121,120,120,123,120,121,121,121,122,120,121,123,122,122,122,121,120,120,121,122,121,122,121,120,121,121,121,122,121,121,122,122,122,120,120,121,121,122,122,121,121,121,121,121,119,121,121,121,121,121,121,122,120,121,121,121,121,121,120,121,121,122,121,122,121,120
119,120,121,122,121,121,121,120,121,122,120,121,121,121,121,120,120,123,121,122,121,120,120,120,120,120,120,121,121,121,122,121,119,120,120,122,121,121,122,120,120,121,121,121,121,121,122,120,121,123,121,121,120,121,121,121,122,123,122,123,121,121,121,121,120,121,121,122,121,121,121,120,121,121,120,122,121,121,121,120,121,122,121,122,121,121,122,120,120,121,120,122,121,121,121,119,121,122,121,122,122,122,122,121,120,120,121,122,121,121,122,120,121,121,121,122,121,121,122,120,120,122,122,122,121,121,120,119
121,121,121,122,122,122,121,120,120,120,120,122,121,121,121,119,120,120,121,122,122,121,121,120,120,122,121,122,121,121,122,120,120,122,121,122,121,121,121,120,120,119,120,122,121,121,121,120,120,123,121,122,121,121,121,120,120,120,121,122,121,121,121,120,121,124,121,121,120,121,121,120,121,116,121,121,120,121,121,121,120,121,120,121,121,121,122,121,121,122,121,121,121,121,122,121,121,122,121,122,121,121,122,121,121,122,121,123,121,121,121,121,121,121,120,122,121,121,122,121,120,121,121,122,121,121,121,120
120,121,121,122,121,121,121,121,120,120,121,122,121,121,121,120,121,122,121,122,122,122,121,120,120,121,121,122,120,120,121,120,121,122,120,121,121,121,121,121,121,122,121,122,121,120,120,120,121,122,122,122,121,121,122,121,120,121,121,122,121,121,120,119,120,121,122,122,121,120,121,120,121,122,121,122,121,120,121,120,120,118,121,122,121,121,121,120,121,124,121,121,120,121,121,120,121,123,121,122,121,120,120,120,121,122,121,121,121,121,122,121,120,121,120,122,121,121,122,120,122,121,121,122,121,121,122,121
121,122,120,122,121,121,121,120,120,121,121,122,121,121,120,120,120,120,121,122,121,121,121,119,120,122,121,122,122,122,122,120,121,123,122,121,120,120,121,120,120,122,121,122,121,120,121,120,120,120,121,122,121,121,122,120,120,121,121,122,121,121,121,120,121,119,121,122,122,122,122,121,121,122,120,121,121,121,121,121,121,122,120,121,121,121,121,120,121,123,122,122,121,121,122,120,120,121,120,122,121,121,121,120,120,120,121,122,121,120,120,120,119,121,121,121,121,121,121,119,121,122,121,122,121,121,122,121
121,122,120,121,121,121,121,121,121,121,121,122,122,122,122,120,121,121,121,122,120,120,121,120,121,123,122,122,121,121,121,120,121,120,122,122,121,120,121,120,120,122,121,122,121,121,122,120,120,121,121,122,121,121,121,120,121,121,121,122,122,122,121,120,120,127,121,122,122,122,121,120,121,115,121,122,121,121,121,121,120,124,122,122,122,122,121,120,121,124,122,123,121,120,121,120,121,121,120,121,121,121,121,121,120,121,121,122,121,121,122,120,120,123,122,122,120,120,122,120,120,121,121,122,121,121,121,119
121,122,121,122,121,120,120,120,120,122,121,122,120,121,121,120,121,121,121,121,121,121,121,120,121,121,121,122,121,121,122,121,122,122,120,122,121,121,121,121,120,120,121,122,121,121,122,121,120,121,121,121,121,121,121,120,120,121,120,122,121,121,122,121,121,123,121,122,121,120,121,120,121,122,122,122,120,121,121,120,120,121,121,122,121,121,121,120,120,121,121,122,122,121,121,120,121,122,122,121,121,121,121,121,120,121,121,122,121,121,121,120,121,122,121,122,121,121,122,121,120,122,121,122,121,121,122,120
120,120,121,122,121,121,121,120,120,121,121,122,121,120,121,120,120,122,120,122,121,121,122,120,121,121,120,121,121,121,121,121,120,121,121,122,120,120,121,120,121,127,121,123,122,121,121,120,121,116,120,121,121,121,121,121,120,123,121,122,122,121,121,120,121,122,120,121,121,121,121,121,120,121,121,122,122,121,121,120,121,122,121,121,120,121,121,120,121,122,121,122,121,121,121,120,121,122,121,121,121,120,121,120,121,122,121,122,121,121,121,120,120,122,121,122,121,121,121,120,120,120,120,121,120,121,121,121
121,122,121,121,121,121,121,120,120,123,121,122,121,121,121,119,121,120,122,122,122,121,121,120,121,122,120,121,121,121,121,120,120,122,120,122,121,121,121,120,121,123,121,121,121,121,121,121,121,122,121,122,122,121,121,121,120,120,119,121,121,121,121,121,120,122,121,122,122,120,120,120,121,122,122,122,121,120,121,120,120,121,121,121,121,121,121,120,120,121,121,122,121,121,121,120,120,120,121,122,122,121,121,120,120,122,121,122,121,121,121,120,121,120,120,121,121,121,121,120,120,121,121,122,122,121,121,120
120,122,121,122,121,121,122,120,120,119,121,121,120,121,121,120,120,122,121,122,121,122,122,120,121,123,121,122,122,121,121,121,121,121,120,121,121,121,121,120,120,120,120,121,121,121,122,120,120,121,121,122,121,121,121,120,120,122,121,121,121,121,121,121,121,122,121,122,121,121,121,121,121,123,122,122,120,120,121,121,119,119,120,122,121,121,121,120,120,121,120,121,120,121,121,120,122,123,121,121,121,121,121,121,119,118,121,122,121,121,122,120,120,123,121,122,122,121,121,120,120,122,121,122,121,121,121,120
120,122,121,122,122,121,121,121,120,121,121,122,121,121,121,120,121,122,121,122,122,121,121,120,120,121,121,122,122,121,120,119,120,121,121,122,122,121,121,120,121,121,121,122,122,121,122,120,120,122,121,122,121,121,122,120,120,121,121,122,122,121,121,119,120,121,121,122,121,120,120,120,120,121,121,122,121,122,121,120,120,122,121,122,121,121,120,120,119,115,121,122,122,121,121,120,121,123,120,122,122,121,122,120,119,120,121,122,121,121,121,120,120,121,121,122,121,121,121,120,121,122,121,122,122,121,121,120
120,121,121,122,121,121,121,119,120,121,122,123,121,120,121,120,121,121,120,121,121,121,122,120,121,123,121,121,120,121,121,120,121,120,121,122,121,121,122,120,120,123,120,122,121,121,121,121,120,122,122,123,122,121,121,121,120,121,121,121,120,120,121,120,121,126,120,121,121,121,122,121,121,117,122,122,121,121,122,121,121,124,120,121,121,122,122,120,120,121,121,122,121,120,120,120,121,122,120,121,121,121,121,121,121,121,121,122,122,121,121,119,120,123,121,122,122,121,121,119,121,120,121,121,120,121,121,120
120,122,121,122,122,120,120,120,121,122,121,123,121,121,121,120,120,122,121,121,121,121,122,121,120,121,121,122,121,121,121,120,121,122,121,122,121,121,121,120,119,121,121,122,122,122,121,120,121,123,122,122,121,120,121,120,121,116,121,121,120,121,121,121,120,123,120,121,120,121,121,121,121,122,121,122,121,121,121,120,120,122,121,122,121,121,122,120,120,122,121,122,121,121,122,120,121,122,121,122,121,121,122,121,120,123,121,122,122,121,120,119,120,119,120,122,121,120,121,119,121,122,120,121,121,121,121,121
121,124,121,121,121,121,122,121,120,121,121,122,122,122,122,120,121,120,121,122,121,120,121,121,120,122,121,122,121,120,121,120,120,121,121,122,121,122,122,120,122,123,121,122,121,121,122,121,121,123,121,122,121,121,121,120,121,125,121,122,120,121,121,121,119,114,121,122,121,120,121,120,121,123,121,121,121,121,121,120,121,123,121,122,122,121,121,119,121,122,120,122,121,121,122,121,120,121,121,122,122,121,120,119,120,120,121,122,122,122,121,119,121,122,121,122,121,121,122,120,120,121,121,122,122,121,120,120
121,122,121,122,121,122,122,120,119,120,121,121,121,121,121,119,120,120,120,122,121,121,121,121,120,121,121,122,120,121,121,121,121,122,121,122,122,121,121,120,120,121,120,121,120,121,121,120,120,118,121,122,121,121,122,120,120,123,121,122,122,121,121,121,120,123,121,122,122,121,120,119,120,121,121,121,121,121,121,121,121,120,120,122,121,121,122,121,121,122,121,122,121,121,121,121,120,121,121,122,122,121,121,120,120,119,120,121,121,121,121,120,121,122,120,122,122,121,122,120,121,123,122,121,120,121,121,121
120,121,121,122,122,121,120,120,120,121,121,121,121,121,121,120,121,122,122,121,120,121,121,120,121,121,121,122,121,121,121,120,119,121,121,122,121,120,121,120,121,127,121,122,121,120,120,120,120,116,121,121,121,121,122,121,121,125,121,122,121,120,121,120,120,120,121,122,121,121,122,120,121,122,120,121,121,121,121,121,121,122,121,122,122,121,120,120,121,121,120,122,121,121,122,121,120,121,121,122,122,121,121,120,121,120,122,123,121,121,121,121,120,121,121,122,122,121,121,120,121,122,120,122,121,121,122,120
120,121,121,122,122,121,120,119,120,120,120,121,121,121,122,121,121,122,122,123,121,120,121,120,120,121,121,121,121,121,121,119,121,122,121,122,121,121,121,120,121,122,120,121,121,121,121,121,121,128,121,122,121,122,121,120,120,117,121,122,122,122,121,119,120,122,121,121,120,120,121,120,120,121,121,122,121,121,121,120,121,123,121,121,121,121,122,121,119,121,121,122,121,121,121,120,121,123,121,122,121,120,120,120,121,122,121,121,121,121,121,120,120,120,120,121,121,121,121,121,120,121,121,122,122,121,121,119
120,121,121,122,121,121,121,120,121,121,121,122,121,121,121,120,120,122,121,122,121,121,121,120,120,121,121,122,122,122,122,120,120,121,122,122,120,120,121,121,120,121,121,122,121,121,121,120,121,123,120,121,120,121,121,120,120,114,121,122,122,121,122,121,121,123,120,121,121,121,122,121,120,122,121,121,121,121,121,120,120,121,120,121,121,121,121,120,120,122,121,122,121,121,121,120,119,120,121,122,122,121,121,119,121,121,120,122,122,121,120,119,120,122,121,122,121,121,121,120,121,121,121,122,121,121,120,120
120,122,121,122,122,121,121,119,120,121,121,121,120,120,121,120,121,122,121,122,121,120,121,121,120,121,120,122,121,121,122,121,121,122,122,122,121,121,121,121,120,121,121,122,121,121,121,120,120,117,120,122,121,121,122,121,121,123,122,122,120,120,121,121,121,122,121,122,121,121,121,120,121,122,121,122,121,122,122,120,120,121,121,121,120,120,121,120,121,122,121,121,121,120,122,121,121,123,122,121,120,121,121,121,121,121,121,122,121,121,121,121,119,120,121,122,121,121,120,119,121,122,120,121,121,121,122,121
121,122,120,121,121,121,121,121,120,120,120,121,121,121,121,121,120,120,121,122,121,121,122,120,121,121,121,122,122,122,122,120,121,122,121,121,120,121,121,120,119,121,121,122,121,121,121,121,122,124,122,122,122,121,122,121,122,122,120,121,121,121,121,121,119,120,121,122,121,121,121,120,120,120,122,122,121,120,121,120,122,123,122,122,122,122,122,121,119,121,120,121,121,121,121,121,120,121,121,122,122,121,120,120,120,121,121,122,121,121,121,120,121,121,121,121,121,121,121,121,121,122,121,122,121,121,122,121
120,122,121,121,121,121,122,120,121,122,121,121,121,121,121,121,120,121,121,122,121,122,122,120,121,122,121,122,122,122,121,121,119,121,120,122,121,121,122,120,120,120,121,122,121,121,121,120,121,119,122,121,120,121,121,120,120,122,121,122,121,121,121,121,120,122,120,121,121,121,122,120,121,122,120,121,121,121,121,121,121,120,121,122,121,121,122,121,120,121,121,122,121,121,122,120,121,122,121,121,120,120,121,120,120,121,120,122,121,121,122,121,121,121,120,121,121,121,121,120,121,122,121,122,121,121,121,121
121,122,121,122,121,121,122,121,120,121,121,122,121,121,121,118,122,122,122,123,122,123,124,123,118,120,120,121,120,119,116,118,121,121,120,120,120,120,118,120,121,122,122,123,123,126,130,124,121,123,121,121,121,121,103,113,117,120,120,124,120,116,105,107,122,121,121,120,120,124,136,127,121,122,122,122,123,122,127,125,122,118,121,124,122,121,115,119,122,125,122,122,123,129,146,126,121,123,121,122,122,120,112,121,121,121,122,123,122,120,123,121,121,122,120,121,121,122,124,121,119,120,121,120,121,120,121,120
120,121,120,122,118,120,122,120,121,121,121,118,121,121,121,120,123,123,123,136,129,126,138,124,119,120,120,119,118,119,118,118,120,122,119,115,119,120,123,118,121,125,123,128,123,115,119,119,124,120,120,120,117,118,121,117,127,120,122,120,129,143,150,134,127,125,121,122,119,111,117,125,114,121,120,121,119,123,118,113,119,122,121,121,121,120,122,119,119,121,122,123,121,119,123,120,119,119,120,123,121,124,119,118,121,121,120,121,118,116,124,122,119,121,120,119,122,120,119,118,118,121,122,123,119,116,118,120
132,124,125,132,122,130,129,125,116,120,120,119,121,127,122,116,119,123,123,126,123,120,119,116,116,119,119,119,118,113,117,112,121,122,120,116,114,117,122,123,122,120,119,126,133,131,121,123,113,121,121,122,118,117,118,110,123,122,121,118,121,124,121,128,117,120,119,120,115,117,116,111,119,119,118,119,121,126,119,119,120,122,121,121,120,123,125,122,121,121,121,121,118,116,119,122,120,121,120,121,122,118,121,120,119,120,119,120,120,120,120,119,121,123,123,123,122,125,120,120,122,124,124,122,120,120,122,122
119,120,120,122,123,127,118,117,120,123,123,125,122,114,120,119,129,122,122,123,125,141,129,124,126,117,120,121,121,117,122,119,123,128,124,122,120,119,119,134,116,121,120,122,127,125,117,112,119,126,121,119,119,129,133,141,114,110,121,124,126,126,126,121,125,120,119,118,118,120,120,118,116,123,120,119,119,113,114,112,118,121,120,125,122,128,119,113,121,120,118,116,116,125,120,122,116,117,115,114,130,133,124,108,115,121,127,131,121,116,117,112,122,123,121,119,123,143,118,119,120,121,120,119,121,117,120,119
117,122,119,113,111,119,130,123,123,119,121,120,124,124,118,116,120,122,120,133,124,121,117,118,126,127,125,149,131,120,120,117,109,117,121,116,116,122,122,123,128,125,127,139,123,121,126,124,114,127,114,91,105,109,110,114,125,120,130,165,144,131,135,126,123,125,123,124,123,118,124,122,125,119,117,110,116,116,111,119,116,124,122,120,122,128,123,119,123,120,117,122,115,113,126,123,123,123,125,118,119,120,127,121,121,121,119,119,121,124,112,118,113,117,117,128,123,115,124,114,124,119,119,117,122,121,132,126
110,121,120,126,120,122,128,118,132,122,120,116,124,127,117,128,124,123,121,118,120,124,125,121,115,118,118,119,116,98,118,119,118,120,119,119,118,119,117,117,120,123,122,123,120,119,120,120,106,115,118,120,124,129,125,118,128,124,121,128,123,126,119,120,104,125,126,124,118,111,123,117,138,112,116,115,118,115,123,132,112,124,124,121,125,125,123,118,121,122,115,115,116,114,123,119,108,119,123,128,132,130,124,117,127,124,122,115,114,122,128,125,117,122,122,129,124,122,118,114,120,124,121,123,126,132,120,121
127,122,121,114,117,119,126,117,116,121,122,128,126,121,138,128,115,125,126,130,118,119,125,131,120,124,124,121,120,117,131,123,122,122,119,115,118,118,107,114,110,121,116,114,120,124,132,118,135,120,126,136,120,118,121,122,123,119,120,111,123,126,122,123,114,122,120,127,123,114,122,118,118,123,121,122,122,130,127,119,115,123,120,127,124,126,129,120,119,115,120,121,121,119,117,119,125,119,119,118,119,123,117,120,114,124,120,120,121,124,120,120,125,123,120,117,124,128,123,119,117,121,121,116,122,123,131,125
125,122,126,136,131,136,121,123,119,123,121,121,117,118,121,119,123,122,119,111,121,126,131,120,115,124,125,125,119,123,119,115,124,117,118,127,119,115,112,120,130,120,119,116,125,122,129,126,118,124,122,123,121,124,130,125,121,123,122,127,122,125,108,117,118,120,119,110,119,112,119,118,124,121,123,125,121,122,118,120,120,122,120,121,122,120,117,120,117,120,117,113,120,125,117,117,121,124,123,115,123,129,127,123,126,121,120,116,122,125,122,121,118,116,119,133,125,120,125,118,122,122,118,116,120,118,119,119
120,125,126,128,121,118,119,119,118,122,120,118,125,134,130,117,128,120,116,115,113,111,116,116,114,117,116,118,115,116,111,117,124,126,132,154,128,127,154,126,117,120,119,120,125,125,106,115,121,122,118,116,125,126,128,124,121,123,126,126,121,131,114,118,123,121,119,119,118,104,124,121,124,121,119,116,119,124,127,124,122,123,124,132,119,112,118,120,120,121,119,114,129,127,117,119,118,120,118,118,121,128,124,120,129,126,124,133,122,122,125,121,116,115,114,108,117,117,120,119,119,123,126,128,125,119,124,123
119,124,123,119,119,118,126,120,123,122,119,115,117,112,124,121,131,125,124,128,122,135,127,122,109,126,124,134,124,121,121,118,115,117,118,118,120,132,120,123,135,120,112,101,113,118,124,122,114,125,137,166,129,131,126,122,118,121,120,123,123,118,120,117,114,121,116,116,118,117,113,118,127,121,121,115,120,116,121,120,127,124,124,124,119,122,127,123,118,122,119,119,120,122,113,117,126,123,121,125,124,122,131,123,118,122,123,122,123,136,119,119,103,126,119,118,118,107,123,116,141,117,128,149,120,124,122,129
119,123,117,112,119,118,112,118,117,123,123,136,124,134,110,117,125,121,119,113,116,118,104,115,124,120,124,122,121,116,125,122,117,117,120,120,121,120,120,118,129,121,121,125,123,126,125,122,113,121,121,120,122,120,111,118,124,123,119,110,119,125,130,123,118,121,121,132,118,119,129,121,120,123,122,122,121,118,123,120,112,113,117,119,119,121,127,124,124,124,121,120,124,134,145,126,122,122,120,121,122,121,124,123,126,121,122,127,121,120,118,121,117,121,119,117,120,121,119,118,120,121,123,123,124,128,118,121
112,121,119,127,119,120,125,118,131,119,120,123,122,123,120,122,118,123,123,129,124,126,127,120,122,121,119,114,125,125,122,119,127,121,122,121,117,109,109,120,125,125,117,111,117,113,110,116,113,117,122,126,123,126,134,124,128,121,118,110,124,122,117,121,125,123,122,118,116,118,129,122,121,123,120,121,124,128,125,121,116,121,119,114,117,106,125,120,122,122,121,122,126,146,134,123,122,123,122,117,117,115,131,125,117,119,120,124,122,123,116,117,120,121,119,118,121,119,114,118,127,124,121,113,117,108,129,124
113,121,123,141,129,124,119,118,131,121,119,110,119,122,122,122,107,122,120,120,121,123,123,118,133,117,122,114,117,114,123,124,112,123,122,124,125,128,113,117,119,122,119,116,122,120,124,121,122,119,120,125,120,120,123,120,121,122,120,119,117,115,120,119,117,120,118,123,118,115,115,118,128,123,124,127,123,127,118,121,131,121,119,122,123,126,119,121,113,127,123,127,123,123,126,120,118,120,117,116,125,127,125,122,118,125,128,127,118,116,120,120,115,124,123,126,125,129,121,118,131,117,120,121,122,125,121,124
118,122,120,121,122,126,110,117,120,123,124,124,124,125,122,120,124,122,120,121,120,115,119,121,129,120,120,113,117,117,123,125,117,120,121,121,118,110,118,119,120,122,120,115,121,125,126,121,120,121,121,122,124,125,123,119,111,122,123,121,121,119,122,119,135,123,119,119,121,124,120,123,126,125,126,129,121,118,118,119,117,119,120,121,122,123,118,122,114,121,120,122,125,131,123,117,121,124,125,133,123,119,122,121,123,123,121,117,119,121,123,122,120,121,117,115,117,112,118,118,120,120,121,124,121,124,119,120
129,121,122,123,123,121,108,120,123,122,120,123,122,120,120,121,119,120,118,118,121,137,130,120,123,124,123,124,125,119,127,122,131,122,121,125,121,121,118,119,118,122,121,119,120,120,123,120,114,121,119,120,123,122,131,121,127,126,122,123,120,119,119,121,127,114,123,122,122,125,127,126,115,122,118,118,122,124,123,120,132,126,129,141,120,117,116,121,116,122,118,111,118,121,115,117,124,123,126,130,125,129,135,125,113,122,123,125,122,128,127,119,122,122,119,113,121,112,116,120,124,120,121,128,121,133,122,121
123,124,123,122,121,119,119,121,122,122,120,121,120,116,121,120,118,119,120,122,121,120,107,116,117,122,119,112,124,125,120,119,115,121,124,131,120,120,121,121,124,119,116,113,120,117,119,120,123,123,124,131,123,118,114,121,123,122,121,121,121,128,126,122,118,123,121,119,123,121,117,117,126,121,122,121,120,115,113,123,112,121,120,118,121,122,122,119,125,120,123,136,122,127,131,124,116,123,119,114,118,117,119,117,121,122,119,116,120,124,125,120,121,122,122,123,121,128,114,116,119,120,119,120,121,117,124,122
121,120,123,130,125,128,127,120,125,122,119,109,115,113,108,117,112,118,124,147,128,124,129,122,128,122,118,114,120,120,106,115,117,121,119,122,121,119,117,118,121,123,123,127,123,125,124,120,116,121,120,119,122,120,118,118,128,124,126,134,122,120,128,124,121,118,121,127,121,119,125,123,121,123,120,119,123,119,115,121,119,123,120,119,120,117,121,120,119,119,119,114,122,122,120,121,125,122,120,123,120,123,118,120,121,122,121,122,120,120,129,122,114,123,120,120,118,113,107,114,125,114,123,134,123,125,131,126
121,125,122,122,117,117,119,118,117,121,121,121,127,123,123,120,125,119,121,127,117,116,112,119,121,125,124,122,126,128,124,120,122,123,125,131,124,126,124,122,120,122,118,117,122,121,118,120,120,121,120,117,120,123,120,120,119,121,119,116,122,114,113,119,120,121,122,120,122,134,122,121,115,124,119,117,120,119,123,119,129,120,124,135,113,107,122,123,118,120,121,126,125,124,124,119,116,123,116,111,117,123,115,119,126,125,125,123,123,128,114,119,122,120,122,128,119,113,128,123,112,121,120,120,124,123,115,117
115,123,123,130,117,119,114,119,125,122,119,115,119,119,121,119,133,117,117,125,120,115,116,122,116,125,127,129,119,122,125,120,118,123,119,121,120,119,115,118,117,123,123,125,120,119,125,120,119,121,118,120,122,126,117,120,121,121,119,120,121,118,119,121,121,121,122,124,122,126,116,120,114,121,122,118,124,119,119,119,126,121,118,118,117,122,132,123,123,119,126,143,132,129,122,123,109,120,114,99,119,117,115,115,122,123,130,146,122,129,135,124,117,122,119,117,120,122,121,119,130,123,119,120,122,123,125,123
97,119,121,122,122,115,117,114,133,119,119,119,115,121,126,125,119,116,123,129,124,135,113,120,113,123,118,120,121,123,119,117,127,122,125,135,122,117,118,122,118,122,122,120,123,122,114,117,120,120,117,115,119,117,118,119,122,122,123,132,129,135,120,120,112,120,118,112,121,119,117,118,144,115,119,117,120,123,120,123,116,121,121,115,121,120,113,118,128,123,120,118,124,125,127,124,120,124,123,131,120,115,124,121,123,122,119,113,119,122,124,123,113,121,119,130,123,115,115,119,120,118,124,121,125,130,126,121
129,122,121,121,120,121,121,119,118,122,119,118,120,120,115,118,108,119,120,120,124,123,128,120,132,119,119,116,111,116,136,127,122,123,123,130,125,104,119,118,116,121,118,113,122,125,116,116,121,122,120,123,119,121,122,123,123,125,126,130,118,112,105,116,116,122,117,107,122,136,123,120,129,120,120,129,124,123,120,122,120,121,117,107,121,120,109,117,119,119,123,123,124,126,117,119,122,123,122,124,122,122,125,122,121,121,121,123,126,128,123,121,120,122,121,121,123,124,121,120,125,123,119,118,122,117,131,123
113,117,125,133,123,120,122,121,124,122,118,116,122,123,124,121,119,122,117,116,115,111,122,121,124,129,133,149,129,127,121,123,128,115,116,113,117,121,127,125,121,124,126,135,123,120,123,118,122,122,117,108,120,121,126,121,122,120,120,122,121,126,126,118,127,125,123,119,121,123,133,123,122,122,122,127,120,119,110,117,119,121,121,121,119,114,123,121,116,123,123,126,125,116,131,120,122,122,119,119,124,136,120,121,131,121,125,129,115,112,124,122,118,119,116,116,124,122,117,119,114,121,122,123,119,123,123,119
118,121,115,106,116,114,124,119,125,120,129,146,130,137,131,125,122,123,118,116,122,123,132,124,120,123,121,124,124,128,126,121,129,129,123,120,126,135,124,120,117,116,128,136,117,99,128,124,129,126,123,116,124,128,118,119,115,123,118,118,121,119,117,118,117,122,124,127,120,120,109,118,121,121,121,120,121,118,125,122,121,122,120,119,120,128,119,119,110,122,120,132,124,120,123,119,129,116,125,132,118,110,111,123,117,121,118,117,120,121,116,118,122,121,118,109,117,116,121,118,121,121,119,114,122,129,123,123
127,124,118,107,114,112,127,120,118,120,118,123,124,139,132,122,126,124,120,116,120,117,119,117,119,116,126,127,120,123,119,123,123,124,122,124,121,123,118,120,116,121,118,120,122,119,125,121,127,125,124,124,123,127,123,123,125,124,122,127,122,129,125,122,119,123,123,124,122,121,116,121,122,121,120,122,123,122,114,115,119,122,120,122,123,128,138,121,120,115,116,116,116,109,117,120,128,123,119,122,124,126,118,120,117,120,121,113,119,119,120,120,126,122,125,135,119,116,116,121,117,124,121,120,123,123,127,122
116,121,122,121,122,121,115,117,136,122,116,105,114,119,126,120,113,123,122,130,123,123,130,119,121,123,120,115,119,121,120,121,124,123,131,141,125,114,122,123,121,120,121,119,118,125,118,118,121,124,119,117,124,134,125,119,114,120,124,129,117,110,126,122,124,120,121,119,122,126,119,119,123,123,120,119,120,118,121,121,124,124,120,122,121,123,132,127,114,118,124,127,122,115,117,116,133,120,119,121,120,120,118,122,119,127,123,124,120,111,117,119,119,112,120,119,124,131,128,123,122,125,121,119,119,113,125,123
107,121,125,123,122,128,126,116,129,121,121,122,122,128,119,122,115,123,118,120,119,114,115,119,130,123,120,118,122,129,134,128,120,121,117,111,119,122,117,118,117,125,128,145,129,127,117,121,127,123,119,129,118,114,116,119,113,119,124,115,117,113,124,122,121,117,120,125,126,123,118,119,124,122,120,119,120,120,109,120,114,121,120,121,118,107,127,119,121,121,119,118,118,115,126,123,118,123,130,147,122,120,117,119,125,120,119,114,119,116,120,122,116,122,120,121,120,118,124,119,127,121,120,118,122,125,127,123
116,122,119,117,120,121,120,119,124,121,120,123,118,122,120,119,123,123,127,113,123,125,130,124,121,118,117,117,113,115,115,119,123,125,122,119,126,133,140,125,119,124,121,119,121,125,118,119,121,122,120,119,120,120,131,122,116,119,117,110,118,116,115,117,123,122,127,155,124,125,120,121,115,124,123,110,119,112,122,119,136,118,118,120,118,119,122,125,118,125,124,128,125,127,122,120,117,120,117,119,121,117,117,119,124,124,126,124,119,122,120,120,124,122,118,117,119,119,118,119,113,123,124,131,122,120,130,121
127,120,119,116,120,113,115,118,120,123,124,139,128,119,122,120,119,122,119,116,121,123,116,117,115,119,118,114,121,124,121,119,127,124,121,121,119,119,122,122,136,120,120,119,123,121,120,122,95,125,119,114,118,123,116,111,137,113,119,122,117,106,115,126,116,126,124,126,124,133,114,118,119,122,122,119,120,122,118,117,121,122,120,117,120,120,114,120,121,123,126,143,127,123,121,121,123,120,120,116,121,114,113,118,119,120,120,121,123,133,124,120,122,123,122,125,123,117,121,122,110,122,118,112,120,120,118,115
137,118,120,119,117,123,104,117,121,123,122,131,123,125,119,120,119,122,120,119,120,119,125,119,120,123,121,118,121,121,125,120,112,120,124,122,119,120,131,120,119,120,119,118,122,117,122,119,132,122,120,119,116,107,121,124,119,122,118,115,119,120,111,116,118,122,119,108,127,128,128,122,127,122,124,125,116,118,119,122,120,117,120,123,124,125,124,121,118,123,119,119,119,114,122,121,119,122,123,119,121,120,117,120,123,122,119,116,120,124,118,120,120,122,117,114,121,117,119,119,125,123,129,144,119,125,132,122
121,122,119,123,120,118,115,115,121,123,119,118,121,125,124,123,114,124,120,122,121,111,120,117,120,117,119,116,122,124,122,125,121,123,126,145,127,125,117,115,123,119,120,121,120,118,119,120,111,121,119,121,122,124,120,117,127,121,123,119,120,120,116,120,127,122,118,109,117,113,121,122,117,120,121,125,122,132,125,119,121,118,116,112,117,115,132,125,123,125,125,125,121,110,104,120,116,121,120,127,125,136,115,116,120,122,119,117,120,117,143,124,119,122,120,124,122,121,114,118,120,119,122,129,119,119,107,117
114,123,124,128,124,119,126,121,133,120,117,116,119,122,140,129,121,123,125,135,127,122,116,120,110,123,121,119,118,122,121,116,130,116,117,119,119,114,111,121,121,126,123,123,122,125,117,121,119,124,123,130,116,114,111,118,113,119,119,112,122,137,122,116,132,120,122,132,119,120,122,121,112,120,117,108,121,123,116,119,126,122,124,130,126,124,119,118,117,123,120,121,120,121,131,121,125,121,120,112,118,113,120,121,116,123,121,134,122,133,118,116,121,119,124,121,124,118,128,123,121,122,122,130,121,123,132,118
125,121,119,118,117,122,138,126,119,121,121,122,121,118,109,117,124,124,120,123,126,131,139,125,112,119,120,116,121,131,124,118,122,117,119,119,116,119,120,120,117,123,118,115,119,118,120,118,116,121,123,126,125,130,116,116,125,121,119,119,117,117,126,122,131,123,119,121,118,113,120,121,126,119,119,126,117,112,114,117,116,122,123,118,126,124,123,122,117,120,122,126,121,127,115,120,120,123,123,117,120,110,131,124,119,119,117,116,121,126,113,117,120,122,119,115,123,128,132,120,120,121,119,115,120,121,118,121
122,123,125,126,118,115,123,119,119,120,120,119,122,125,131,125,121,123,120,121,121,121,119,121,121,118,119,116,120,119,120,115,121,124,120,121,126,126,123,121,123,117,117,115,116,124,117,116,116,123,120,118,121,118,121,118,119,122,121,122,123,124,122,120,126,121,119,117,119,121,115,119,119,120,126,136,122,114,127,122,110,121,120,120,122,125,117,115,123,118,118,119,121,124,125,123,123,123,121,122,120,119,114,121,120,121,116,104,117,118,118,118,121,121,125,136,119,120,113,118,124,121,120,117,120,123,118,120
117,124,123,115,121,120,120,118,127,118,120,113,120,122,133,124,122,120,119,122,122,119,115,120,119,123,121,122,120,121,110,117,120,122,123,115,128,142,149,125,123,122,120,119,119,112,115,118,120,117,119,117,121,123,126,125,115,123,124,130,126,122,121,119,119,120,119,116,119,121,117,118,121,124,123,121,125,123,114,118,110,121,118,123,118,116,119,116,122,117,121,116,118,119,122,122,126,121,118,123,123,123,129,120,122,119,119,119,120,118,120,121,120,125,119,115,122,118,130,124,124,122,127,138,126,122,126,123
118,121,119,112,118,124,113,118,120,120,118,117,120,121,119,118,121,123,122,122,121,120,128,124,112,120,121,125,119,123,124,118,126,122,119,112,117,116,121,120,115,116,116,122,117,121,116,114,114,124,122,123,118,118,126,120,128,123,128,148,129,132,134,124,120,122,117,113,117,116,119,119,127,122,119,113,118,116,120,122,122,124,124,133,124,126,134,121,113,120,121,125,121,124,123,121,125,116,116,108,120,123,114,121,123,124,122,121,127,123,130,121,119,122,123,122,120,121,119,121,123,124,121,117,130,133,125,121
125,121,119,120,117,107,120,120,121,123,125,124,115,121,128,123,122,121,120,118,121,123,123,122,117,123,120,119,119,115,124,119,117,123,120,122,123,118,116,119,115,125,124,130,117,122,125,121,124,115,118,116,116,114,113,121,121,122,118,116,120,120,129,123,119,121,118,119,119,117,115,116,120,121,119,110,123,127,124,121,121,122,123,126,122,125,120,121,127,121,119,116,121,110,120,120,113,120,122,128,122,122,120,119,122,124,120,117,122,123,125,122,116,122,125,133,120,119,115,119,124,123,121,119,124,111,111,118
123,122,119,125,122,128,137,124,120,122,119,113,120,120,108,115,119,125,125,150,117,106,118,114,132,118,117,109,118,117,120,123,118,124,126,130,121,121,124,123,122,121,117,118,121,126,123,120,119,124,122,118,119,111,115,119,121,117,120,119,120,129,121,120,119,121,120,129,125,112,109,117,118,120,118,110,119,124,112,117,120,121,121,123,121,125,121,121,114,123,117,104,124,130,113,115,135,121,130,162,127,120,123,124,120,118,119,121,121,124,113,121,113,124,119,120,119,119,117,117,114,120,121,121,122,123,125,119
133,119,122,128,124,121,120,124,115,123,119,120,118,117,121,118,131,125,125,125,122,120,122,120,115,119,116,121,120,116,133,123,121,121,124,125,119,114,120,120,122,125,120,114,124,129,125,122,120,119,119,120,120,122,127,123,126,125,125,124,119,120,115,121,111,120,118,115,120,126,131,119,128,119,119,119,124,122,119,123,118,121,120,115,118,122,118,120,116,124,123,133,122,113,127,119,126,115,118,120,119,118,107,118,117,120,114,105,120,124,120,115,123,127,130,135,123,131,124,121,119,117,120,117,125,126,135,123
112,125,119,121,118,113,117,118,128,120,121,119,123,128,126,123,112,124,116,101,118,109,125,118,135,116,125,143,121,117,119,124,114,122,120,114,117,125,109,116,116,119,117,112,121,120,137,124,122,122,121,126,120,124,131,121,121,123,119,117,121,119,120,120,118,119,116,109,116,112,127,124,125,122,127,140,124,122,108,118,128,116,116,113,120,122,117,122,122,124,121,122,122,122,122,121,126,120,118,121,120,118,117,120,119,118,115,110,119,119,129,124,117,124,130,150,125,124,125,120,124,123,121,122,121,125,124,120
113,121,116,113,116,117,121,117,119,118,123,133,138,146,152,126,134,121,117,87,116,112,121,121,118,120,125,134,119,120,115,117,117,121,118,118,120,118,126,119,124,120,120,116,123,125,128,125,114,118,108,99,118,128,129,120,121,127,136,170,121,114,121,122,119,116,113,108,125,124,120,120,128,123,123,132,118,115,121,119,125,122,117,111,121,121,140,123,115,123,121,114,121,126,126,117,117,122,118,107,111,107,109,116,126,114,119,123,119,126,119,123,108,122,119,117,122,119,116,116,134,122,123,125,128,127,121,126
117,122,123,129,119,112,127,120,122,120,119,120,119,119,124,120,121,121,123,128,123,126,113,119,117,119,118,115,120,125,125,118,123,123,124,125,120,116,121,121,119,122,118,119,118,118,117,118,115,121,124,127,123,121,135,127,120,121,113,106,118,118,118,117,120,122,133,143,122,119,131,125,118,119,122,118,120,112,123,121,119,122,118,117,121,127,120,116,118,122,120,121,121,124,133,125,124,124,125,142,120,121,119,121,112,123,120,116,119,114,118,117,144,116,121,119,121,125,128,130,114,122,119,114,119,124,112,113
117,123,119,116,116,108,119,118,121,123,121,116,125,132,121,121,120,120,118,111,118,124,125,121,120,120,120,126,126,122,118,118,124,120,116,109,118,122,109,118,121,127,127,117,121,119,135,128,123,123,131,153,130,105,123,118,106,118,115,112,119,121,119,116,144,123,122,122,122,128,129,127,117,122,120,119,119,123,144,120,113,121,119,119,122,126,114,119,127,127,126,131,118,108,117,122,117,119,124,132,120,116,128,120,137,121,121,120,122,119,128,123,117,125,119,119,122,124,129,123,116,121,114,107,117,113,114,117
113,126,130,128,122,128,125,120,141,118,120,120,122,118,128,133,120,120,112,115,124,128,113,116,125,127,126,114,119,116,126,121,114,119,125,117,123,124,113,116,125,120,117,111,120,105,118,119,121,123,120,119,120,120,121,121,119,122,122,115,120,122,120,120,116,116,117,122,119,116,118,119,120,121,119,115,120,111,116,117,123,117,117,116,119,127,121,118,118,122,121,121,119,117,119,121,117,125,123,123,125,124,129,124,139,124,122,122,121,118,122,120,123,123,121,120,115,110,114,122,117,123,120,121,123,132,132,118
118,120,119,123,119,115,113,119,123,123,119,97,125,131,138,126,129,126,135,149,125,119,133,124,121,122,116,120,121,122,115,119,123,120,109,97,118,121,119,118,118,119,133,162,126,128,127,119,121,120,116,114,121,122,120,121,120,121,116,108,119,126,124,122,126,125,121,110,112,118,118,119,116,120,126,131,127,118,125,116,112,114,117,115,118,128,130,119,119,123,119,119,120,123,109,115,117,123,124,125,125,119,118,122,126,125,122,121,118,121,121,118,117,117,121,118,122,125,128,125,122,125,122,120,120,119,121,120
115,120,120,122,121,120,112,116,114,123,120,120,123,122,123,120,123,119,121,117,120,124,134,125,118,121,118,121,121,115,113,117,120,121,126,137,122,125,121,120,117,123,126,120,127,127,129,125,114,121,120,120,119,130,110,115,125,122,120,131,121,128,120,123,119,125,122,117,121,120,121,121,130,117,121,140,126,125,130,125,114,127,125,126,124,129,134,119,130,119,120,132,121,121,113,119,121,125,124,127,119,119,129,121,124,119,121,122,124,121,122,124,113,124,119,122,120,127,116,116,123,123,123,120,123,123,125,123
122,119,119,121,121,120,124,121,119,124,126,132,122,119,127,119,121,120,115,108,119,117,121,120,120,125,128,120,127,123,136,124,125,121,121,122,118,123,114,117,119,124,119,120,121,124,123,123,143,122,123,112,119,120,139,128,118,119,122,136,124,117,129,122,115,121,118,119,127,136,122,118,125,126,122,117,119,113,125,123,126,121,122,120,120,127,123,119,125,120,117,105,122,116,135,120,125,121,125,134,117,123,125,122,119,123,117,113,123,127,114,117,115,124,124,129,125,125,123,119,128,125,119,108,123,125,120,120
128,110,114,124,114,109,120,123,117,121,118,117,122,130,123,117,120,118,118,115,118,118,116,122,122,125,121,120,124,120,125,119,123,120,121,128,122,126,130,127,117,122,125,137,119,116,120,120,132,123,121,118,122,123,124,123,112,119,119,117,120,119,120,120,118,120,121,130,124,128,116,117,123,121,120,124,119,118,114,119,118,123,123,130,120,114,120,120,123,120,115,109,111,123,116,121,122,121,124,135,120,116,114,117,116,122,125,139,125,122,110,116,121,121,117,123,122,133,128,123,127,121,122,123,119,115,114,120
121,123,126,145,126,126,122,121,116,119,117,117,119,120,118,117,107,126,115,118,122,131,124,116,131,111,128,139,121,115,129,133,111,124,121,125,120,117,124,117,119,123,119,119,122,126,121,120,96,121,120,120,119,115,123,116,170,124,123,117,121,116,118,130,111,123,126,129,132,130,109,118,111,122,117,114,122,126,122,116,124,123,121,118,120,121,123,123,120,122,120,120,122,126,122,120,118,116,111,106,114,108,118,118,122,126,127,131,134,127,126,123,118,119,123,127,114,120,119,117,121,121,118,119,120,124,120,120
121,122,122,121,119,116,121,121,119,130,121,118,119,118,119,118,120,119,122,122,129,127,126,124,143,109,123,145,119,113,126,128,102,122,127,139,128,126,110,117,122,120,118,121,118,116,132,120,126,125,111,84,116,114,120,120,90,126,131,169,138,135,140,118,143,107,116,117,113,117,112,130,113,122,122,121,119,120,111,115,117,123,119,117,120,118,123,121,121,122,122,121,121,121,120,119,120,122,121,121,119,113,117,120,119,121,122,123,121,122,134,122,119,120,122,125,123,126,114,118,121,121,116,109,120,120,116,119
121,122,123,132,118,116,124,121,111,123,127,124,123,125,116,118,130,123,120,118,125,131,132,126,124,114,110,101,117,116,131,126,111,129,137,149,133,128,131,121,125,123,123,119,119,122,130,118,120,122,117,115,121,123,124,119,123,123,119,127,121,118,118,120,117,124,114,79,125,127,130,124,138,113,139,165,122,112,137,128,113,122,119,130,124,132,111,115,120,125,120,110,119,118,121,120,120,122,120,119,121,129,123,120,120,121,120,120,117,107,121,120,120,120,120,122,122,123,119,118,124,124,124,126,123,128,117,123
123,121,119,120,122,118,119,117,117,120,121,119,121,122,119,120,114,122,121,123,122,118,111,113,114,105,113,121,121,123,121,119,111,124,122,133,123,121,135,124,126,125,120,94,120,128,103,116,118,125,115,125,118,118,114,117,114,120,127,94,123,120,124,121,142,117,119,127,124,123,123,127,112,124,117,116,120,117,119,118,117,122,121,121,123,129,122,118,121,122,120,121,122,121,118,120,118,122,121,125,120,118,113,119,123,118,118,126,125,127,118,117,120,123,122,119,120,122,114,120,119,120,117,107,117,114,121,122
121,125,125,147,131,132,108,117,136,118,121,125,106,100,124,120,123,123,117,124,127,133,128,122,118,124,121,114,122,120,120,121,115,120,128,139,124,116,116,118,121,120,118,116,119,117,127,119,117,122,123,116,124,136,121,121,122,123,120,118,118,104,114,117,119,120,118,111,113,106,112,117,124,122,128,135,122,125,121,119,101,123,114,99,117,120,119,115,126,114,126,120,127,128,121,126,119,125,122,141,121,109,119,118,105,125,120,113,120,121,130,118,144,120,115,105,122,119,91,120,119,122,129,134,121,130,144,126
120,124,120,103,120,127,127,120,119,125,121,125,118,113,118,119,120,121,121,124,120,119,119,120,122,120,117,114,123,120,117,119,117,119,123,132,123,121,118,120,120,123,118,112,122,134,112,118,119,120,119,125,117,107,112,118,118,122,115,108,113,126,102,116,108,121,129,152,127,116,134,126,133,119,129,137,118,118,115,123,116,124,116,113,121,123,124,118,115,122,113,110,119,124,120,118,121,125,131,139,126,116,116,121,119,120,123,120,121,121,128,121,119,118,114,115,118,125,119,116,118,124,124,124,120,118,105,118
125,120,117,117,122,124,122,121,116,122,116,109,118,119,121,119,133,127,130,152,132,125,125,128,118,114,118,115,117,117,127,125,141,128,124,121,124,137,145,128,116,125,119,116,122,120,123,121,117,121,120,126,122,121,127,121,114,125,115,111,119,114,130,122,123,110,122,129,121,129,113,119,127,120,120,130,114,117,127,121,119,124,123,138,122,114,127,118,119,121,120,117,116,120,108,117,121,120,112,97,114,113,127,121,121,123,126,147,121,123,121,121,119,121,124,142,119,120,122,119,121,121,119,115,118,121,125,120
121,122,119,117,120,120,122,120,120,129,124,121,124,124,123,121,115,112,117,105,119,115,124,128,135,122,125,144,120,121,112,119,112,125,118,116,121,119,116,119,120,113,117,119,119,121,115,118,120,126,124,133,127,125,119,121,131,120,119,111,115,112,99,118,116,120,116,123,127,126,129,120,121,126,126,81,119,113,129,123,126,116,123,127,122,132,134,122,117,120,115,115,118,111,114,116,119,120,113,105,116,125,116,117,119,121,121,113,117,115,120,121,103,128,120,122,119,131,123,116,131,111,128,159,122,90,122,131
118,122,122,120,120,127,118,120,118,123,118,118,123,123,122,119,115,123,119,106,119,118,117,117,91,119,121,126,122,121,106,113,152,119,119,121,123,132,126,131,115,126,122,116,119,118,130,116,119,121,117,115,120,119,123,119,123,125,127,121,125,122,124,121,115,120,119,127,116,115,113,114,132,119,118,123,125,119,117,124,117,122,106,83,120,138,120,115,109,130,145,187,131,132,130,118,133,109,116,98,116,122,143,128,118,123,117,121,126,126,124,120,123,123,117,117,120,119,123,122,111,124,119,105,119,125,114,116
104,115,124,133,117,118,125,118,129,120,116,112,118,120,119,120,117,122,119,117,123,125,120,121,121,122,119,122,122,126,114,118,128,125,128,126,123,120,130,120,119,123,118,110,115,120,127,120,118,115,113,117,117,114,98,115,117,129,131,130,126,127,136,126,123,124,123,120,119,121,134,122,122,118,120,135,126,141,109,118,121,122,119,112,120,125,131,122,126,119,118,116,124,120,114,118,118,121,118,114,120,116,117,118,117,121,123,135,124,131,119,119,116,131,131,116,116,119,126,124,121,118,121,115,120,115,117,122
125,123,117,115,123,133,130,121,118,116,117,119,118,117,118,119,112,124,131,129,122,121,118,120,118,117,116,115,120,119,119,119,119,126,117,110,115,123,115,118,139,121,130,141,134,134,127,127,112,119,119,110,112,113,112,117,124,126,127,137,121,124,129,120,114,120,120,116,124,130,105,116,124,122,120,117,119,116,120,122,120,122,119,121,116,102,120,118,123,123,124,127,120,126,115,119,116,118,118,113,120,123,113,118,121,126,126,147,124,123,115,118,130,127,125,124,124,107,127,123,133,118,121,129,123,127,124,122
113,113,116,115,118,114,114,123,114,124,121,117,119,124,129,117,115,120,119,116,119,121,128,121,119,122,119,120,121,116,121,121,130,125,129,129,121,118,119,123,115,121,123,123,125,125,139,124,128,121,117,105,122,130,119,124,118,125,121,122,121,116,128,119,119,125,126,134,114,114,121,120,121,122,125,145,129,128,128,123,121,119,117,111,117,120,125,122,119,121,119,121,118,111,113,120,120,127,132,147,126,123,130,122,127,120,123,126,123,124,127,126,113,121,118,118,119,115,131,121,113,122,118,111,121,125,118,115
138,120,120,114,121,124,121,124,123,125,117,111,120,120,132,121,118,119,135,185,130,123,123,121,123,125,117,114,119,127,120,121,112,121,121,120,123,119,130,123,130,122,121,117,122,120,123,124,123,124,120,114,115,117,123,123,119,118,125,121,121,127,118,117,114,119,115,106,115,109,122,120,124,124,120,117,122,122,120,121,112,124,122,119,119,118,115,116,122,103,111,100,113,119,136,123,122,124,117,109,117,114,107,117,123,122,123,142,126,119,126,118,112,119,120,112,121,124,127,119,129,122,113,110,115,122,110,120
112,123,131,167,135,125,120,119,132,107,119,123,122,122,139,131,121,126,121,121,122,124,118,118,114,125,119,121,122,123,121,118,119,114,120,122,122,119,120,121,138,121,119,118,120,121,125,126,108,123,122,117,122,125,128,118,121,123,124,125,123,123,113,117,123,123,118,107,122,121,119,120,122,125,125,131,122,118,124,121,121,121,115,89,115,125,111,118,116,121,123,129,117,98,118,120,126,121,114,102,119,121,129,124,119,121,129,155,122,119,115,119,128,127,119,119,117,119,137,127,118,117,122,123,121,120,125,119
136,122,120,112,117,118,114,120,115,126,124,125,125,127,139,126,118,123,115,106,119,114,102,113,115,116,124,120,119,121,129,121,126,124,119,123,120,119,120,120,120,121,118,119,123,127,110,119,121,123,125,134,122,119,123,121,123,121,123,123,118,120,117,119,119,123,123,128,120,121,121,118,120,121,120,117,121,117,116,120,120,120,119,118,114,120,119,118,121,121,124,122,134,122,121,120,121,123,121,122,120,119,119,120,121,121,121,119,117,118,121,121,121,121,125,123,122,123,126,121,119,124,118,125,121,121,124,121
120,114,113,117,119,122,124,120,120,123,121,123,120,115,121,121,120,121,125,122,121,114,121,120,121,121,120,124,122,123,121,120,119,120,120,122,120,119,122,121,120,121,122,121,119,121,124,121,120,121,121,121,124,122,127,121,120,122,121,122,116,119,116,119,121,121,122,120,118,121,123,121,121,121,121,123,127,123,122,120,120,120,122,119,108,119,122,121,121,121,118,118,118,119,120,120,122,121,128,126,122,122,123,121,119,121,116,122,127,126,120,119,121,122,119,120,121,120,121,120,122,121,121,121,119,122,121,120
120,122,121,123,124,121,122,120,120,121,122,122,125,123,121,120,120,121,119,120,114,120,121,121,120,122,121,120,114,116,120,119,121,122,121,123,128,121,120,119,120,122,121,123,120,121,119,117,121,121,121,122,123,122,122,124,121,122,121,125,122,121,124,119,119,122,120,121,124,122,117,118,123,120,120,121,114,120,125,138,126,124,122,123,130,124,129,135,115,122,120,119,112,121,121,99,119,120,124,120,119,117,116,115,125,121,115,119,115,121,128,157,121,123,126,122,122,124,130,124,119,121,120,127,131,124,118,104
120,122,124,114,94,113,125,133,122,123,121,123,137,127,120,115,119,120,122,122,121,120,120,119,120,122,121,123,120,120,121,120,120,122,121,123,127,124,122,120,121,122,121,126,138,124,121,120,121,122,121,120,114,119,121,121,120,121,121,122,125,122,121,119,122,121,120,120,118,120,122,123,121,122,121,122,127,123,121,120,114,122,121,124,130,122,120,108,123,121,120,121,123,123,123,123,119,121,121,122,121,121,120,121,120,121,121,122,122,121,121,119,124,121,120,120,113,119,121,128,114,121,121,124,127,121,121,108
122,121,122,122,119,121,118,121,121,122,121,120,123,125,129,126,118,120,119,121,118,119,120,124,124,123,123,120,116,123,129,116,115,119,123,121,116,113,110,111,125,124,116,122,139,131,127,143,119,121,114,119,113,117,128,118,128,124,125,124,123,119,127,134,116,119,121,116,98,115,110,112,118,119,117,119,117,115,115,105,119,122,122,122,120,123,127,119,124,121,120,121,119,121,120,119,114,120,121,122,122,122,120,118,122,122,121,122,122,122,123,121,122,120,120,121,121,121,123,124,122,121,120,121,121,121,122,121
119,121,121,122,125,121,120,118,119,121,121,123,121,120,120,117,121,122,122,125,125,121,121,120,120,121,120,121,119,121,122,121,122,122,121,121,111,120,122,122,120,121,121,122,124,120,121,121,122,121,121,120,111,120,121,120,120,123,121,121,119,120,122,129,117,118,120,119,115,119,117,109,121,123,121,122,123,120,121,120,122,121,120,120,119,120,121,122,121,122,122,122,121,122,121,118,122,123,122,126,131,124,122,125,119,121,123,124,126,123,121,116,119,121,120,122,120,118,120,119,119,120,120,121,119,121,121,120
122,123,122,122,121,121,122,122,121,120,120,121,121,121,122,121,120,121,121,122,122,121,120,120,121,123,121,121,121,121,121,120,121,121,121,121,121,121,121,121,121,122,121,122,121,120,121,120,121,121,120,121,121,121,122,120,120,121,121,122,121,121,121,119,121,121,121,122,122,121,120,120,120,121,120,121,119,120,120,120,120,121,121,121,121,122,122,120,121,122,122,122,121,121,121,120,120,121,121,122,121,121,122,120,120,121,121,122,122,121,122,120,120,121,121,122,121,121,121,120,121,122,122,122,121,121,121,121
120,121,120,122,121,121,122,120,120,121,121,122,121,121,121,120,120,121,121,121,121,121,122,121,121,122,121,121,120,121,121,120,121,122,120,121,121,121,122,121,120,122,121,121,121,121,122,121,121,116,121,122,122,122,122,120,120,123,121,122,122,121,121,119,120,123,121,122,121,121,121,120,120,121,121,122,121,121,122,120,121,122,120,121,121,121,121,120,119,121,121,122,121,121,122,120,120,121,121,122,122,121,121,119,121,121,120,122,121,121,122,121,120,120,121,121,121,121,122,120,120,122,121,122,121,120,121,120
119,120,120,122,121,121,122,120,120,122,121,122,121,120,121,120,120,121,121,122,122,121,121,120,121,122,121,122,122,122,121,121,120,121,121,122,121,122,121,120,121,122,121,122,120,120,121,120,121,122,121,121,121,121,122,120,120,121,121,122,121,121,122,120,121,121,121,121,121,121,120,120,119,120,120,121,121,121,121,120,120,121,121,122,121,121,121,120,120,121,121,122,122,121,120,119,121,122,121,121,121,121,122,121,120,118,121,122,121,121,122,120,121,123,121,121,121,121,121,120,120,122,121,122,121,122,122,120
121,122,121,121,121,121,121,121,120,122,122,122,121,121,121,121,121,121,121,122,121,121,121,121,120,121,121,121,120,120,121,120,120,122,121,122,121,121,120,120,121,122,121,121,120,120,121,120,121,122,121,121,121,121,121,121,121,122,121,122,121,121,121,120,120,122,121,122,121,121,121,120,121,122,121,122,121,120,121,120,120,121,121,122,121,122,122,120,121,122,120,121,120,121,121,121,121,122,120,122,121,122,121,120,120,121,121,122,121,120,120,120,120,121,121,122,122,121,122,120,121,122,121,122,121,120,121,120
120,121,120,122,121,121,122,120,121,122,122,122,120,120,121,120,120,127,121,122,121,121,121,120,119,115,121,122,122,121,121,120,121,124,121,121,121,121,121,120,120,122,121,122,121,121,122,120,120,121,121,122,121,121,121,120,120,122,121,122,121,121,122,121,121,122,121,121,121,122,120,120,120,121,121,121,121,121,121,121,120,121,121,122,121,121,121,120,121,122,121,121,120,121,121,120,120,121,121,122,122,121,121,119,121,121,121,121,121,121,121,121,121,121,120,122,121,121,122,121,121,121,120,121,121,121,122,121
121,122,120,122,121,121,122,120,121,122,121,121,120,120,121,120,120,121,120,122,121,121,122,121,120,121,121,122,121,121,121,119,121,121,122,122,122,121,120,120,119,121,121,122,121,121,121,120,120,120,120,121,121,121,121,121,121,121,121,122,122,121,121,119,120,122,121,122,122,121,120,120,121,122,122,122,121,121,122,121,121,121,122,122,122,121,121,120,120,121,121,122,122,121,121,120,120,121,120,122,121,121,122,120,121,122,121,121,121,121,121,120,120,121,121,122,121,121,120,119,120,122,121,122,122,121,121,120
120,120,121,122,122,120,120,120,120,123,121,122,121,121,121,120,120,121,121,122,121,121,121,120,121,122,121,122,121,121,121,120,120,122,122,121,120,121,121,120,120,122,121,122,121,122,121,120,121,121,121,122,121,121,122,121,120,121,120,121,121,120,122,121,120,121,121,122,121,121,122,121,120,122,121,122,121,121,121,121,120,121,120,121,121,121,121,120,121,121,120,121,121,121,121,120,121,121,120,121,121,121,122,121,120,121,121,122,121,121,121,120,120,121,121,122,122,121,121,120,121,122,122,122,121,121,121,121
121,122,120,121,120,121,121,120,121,122,121,121,120,121,121,120,121,122,121,122,121,120,121,120,121,127,120,121,121,121,121,121,119,115,120,121,121,121,121,121,120,122,120,122,121,121,121,120,121,122,121,122,121,121,121,120,120,121,121,122,122,121,121,120,121,122,121,122,121,121,121,120,120,121,121,122,121,122,121,120,121,121,120,121,121,121,122,121,121,121,120,121,121,121,122,121,121,122,122,123,121,121,121,121,121,122,121,122,121,120,121,120,121,122,121,122,120,120,121,120,120,122,121,122,122,121,121,120
120,122,120,121,121,121,121,120,120,121,121,123,121,121,121,121,120,121,120,121,121,121,122,121,119,121,121,122,121,121,122,120,120,124,120,121,121,121,121,120,120,115,121,122,121,122,122,121,120,124,120,122,121,121,122,121,121,123,121,121,121,121,122,121,121,121,121,122,121,121,121,120,121,121,121,122,121,121,122,120,120,121,121,122,121,120,121,120,120,122,121,122,121,121,120,120,121,122,121,122,121,122,121,120,121,122,121,122,121,120,121,120,120,122,122,122,122,122,121,121,120,122,120,122,121,121,121,120
120,121,121,122,121,122,122,120,121,122,121,122,121,120,121,120,121,123,122,122,122,121,121,121,121,121,121,122,120,120,121,120,120,121,120,121,121,121,122,120,121,121,120,122,121,121,121,120,121,122,122,121,120,121,121,121,120,120,121,122,121,121,122,120,121,127,121,122,121,121,122,121,121,117,120,121,120,121,121,120,121,123,121,121,121,121,122,121,121,123,121,122,121,121,122,121,120,121,121,122,122,121,121,120,120,121,120,122,121,121,121,120,121,122,121,122,120,121,121,120,121,122,122,122,120,120,120,120
121,121,121,121,121,121,121,120,120,122,121,122,121,120,121,120,121,122,120,121,121,120,121,121,120,121,121,122,121,121,121,120,121,123,122,122,122,120,122,121,120,121,120,121,121,121,121,120,121,121,121,122,122,121,120,120,121,122,121,122,120,121,121,120,121,122,121,122,120,120,121,120,121,122,121,122,121,121,121,121,121,121,121,121,120,121,121,120,119,121,121,123,121,122,122,120,120,127,120,121,121,121,121,121,121,116,121,121,121,121,122,121,120,123,121,121,121,121,122,120,121,123,120,121,121,120,121,121
121,122,122,122,121,120,121,120,120,121,121,122,121,120,121,120,121,121,121,121,120,121,121,120,120,120,120,122,121,121,122,120,120,121,121,122,121,121,121,120,120,121,120,121,121,122,122,121,121,122,122,122,121,121,121,121,120,121,121,122,120,120,121,120,120,121,121,122,121,120,121,120,121,121,121,121,121,121,122,121,120,122,121,122,122,121,121,119,120,121,121,122,121,121,121,120,120,122,121,122,121,120,120,120,119,121,121,121,121,121,122,120,121,121,120,122,122,121,121,120,120,121,121,122,121,121,120,119
120,121,121,121,121,121,121,121,120,121,121,122,121,121,121,120,121,127,121,122,122,120,121,120,121,117,121,121,121,121,122,121,121,123,120,121,121,121,121,120,120,122,121,122,121,121,121,120,120,122,121,121,121,121,121,120,120,120,120,122,121,121,121,120,121,121,121,122,122,122,121,120,120,121,121,122,121,121,122,121,120,121,121,122,122,121,120,120,120,121,121,122,122,121,121,119,121,121,120,121,121,121,121,120,121,122,121,122,122,121,121,120,121,121,120,122,121,121,121,121,121,121,121,122,121,121,121,120
121,122,121,121,120,120,121,121,121,122,121,122,121,121,122,121,121,122,121,121,121,121,121,121,121,121,120,121,121,121,121,121,121,122,121,122,121,120,121,120,121,122,121,122,121,120,121,120,121,122,122,121,120,121,121,121,121,122,121,121,120,121,121,121,120,123,121,122,121,120,121,120,119,118,120,122,122,122,121,120,121,124,121,121,121,121,122,120,120,123,121,122,121,121,121,120,120,121,121,122,122,121,121,120,121,121,121,122,120,120,121,120,120,121,121,123,122,121,122,121,121,122,121,122,121,121,121,121
121,121,121,122,121,121,122,121,121,122,121,121,120,121,121,121,121,121,120,121,121,121,121,121,120,121,120,122,121,121,122,120,121,124,121,122,120,120,121,121,120,115,121,122,122,121,120,120,121,123,121,122,120,120,121,120,121,123,121,122,121,121,122,120,120,121,121,122,121,120,121,120,120,121,120,122,121,121,122,120,121,122,121,122,121,120,120,120,120,121,121,122,121,122,122,120,120,121,121,122,121,121,122,121,120,121,120,121,121,121,121,120,121,121,120,121,121,121,121,121,121,123,121,121,121,121,122,121
120,115,120,122,121,122,121,120,121,122,120,121,121,121,122,121,120,123,121,122,121,121,120,120,120,122,121,122,121,122,121,120,121,121,121,122,122,122,122,121,119,120,120,122,121,122,121,119,121,121,122,122,121,120,121,120,121,121,120,121,121,121,121,120,121,122,121,121,121,121,122,120,120,121,121,122,122,121,121,121,120,120,120,122,121,121,122,120,121,122,121,122,121,120,121,120,120,121,121,122,121,120,121,120,120,121,121,122,122,121,121,120,120,121,121,121,121,121,122,121,120,121,121,122,121,121,121,119
120,121,121,122,122,121,120,119,120,121,121,121,121,121,121,120,121,122,121,122,121,121,122,120,121,122,120,121,121,121,121,121,120,121,121,122,121,121,121,120,120,122,121,122,121,120,121,120,120,121,121,122,122,122,122,120,120,122,121,122,121,120,121,120,121,122,121,121,120,121,121,121,120,121,121,122,121,121,121,121,120,122,121,122,121,121,121,121,120,120,120,121,121,121,122,121,121,122,121,122,120,120,121,120,120,121,121,122,121,121,121,120,120,121,122,122,121,120,121,120,121,122,121,123,121,121,121,121
121,122,121,122,122,121,122,120,121,122,122,122,121,120,121,120,120,115,121,122,122,121,121,120,120,124,121,121,120,120,121,121,120,121,121,122,121,121,122,120,120,122,121,122,121,122,121,120,120,121,120,122,121,121,121,120,120,121,121,122,121,121,122,120,121,123,121,122,121,121,122,121,120,121,121,122,121,121,121,120,120,121,121,122,121,121,121,119,120,121,121,122,121,121,120,120,121,122,121,122,120,121,122,121,121,122,121,122,121,120,120,120,121,121,121,121,121,121,121,121,121,122,121,121,120,121,121,121
121,122,120,121,121,121,121,121,121,124,121,122,122,122,122,120,120,120,121,121,121,121,122,121,120,122,121,122,121,122,120,120,121,122,121,121,120,121,121,120,121,122,121,122,121,121,121,121,120,121,121,122,121,120,121,120,120,121,121,122,121,121,122,121,121,122,122,121,120,121,121,120,120,121,120,122,121,121,122,120,121,122,121,122,122,122,122,120,120,121,121,122,122,121,121,120,120,120,120,121,121,121,121,121,120,121,120,122,121,122,122,120,121,123,122,123,121,121,121,121,120,119,121,122,121,120,121,120
121,122,120,121,121,121,121,121,121,122,121,121,121,121,121,120,121,122,122,121,120,120,121,120,120,121,120,122,121,121,122,121,121,122,121,121,121,121,121,121,120,120,120,122,121,121,121,119,119,118,121,122,121,122,121,119,121,122,120,122,122,121,122,120,120,122,121,122,121,121,122,120,121,122,121,122,122,121,121,120,120,120,120,122,122,122,121,120,120,122,121,121,120,121,121,120,121,122,121,122,121,120,120,120,121,121,121,122,121,120,121,120,121,121,120,121,121,121,121,120,121,122,122,121,120,120,121,120
120,122,120,121,121,121,121,120,121,122,121,122,121,120,121,120,120,121,121,122,121,121,121,120,120,121,121,122,121,120,121,119,121,122,121,121,120,121,121,120,121,122,121,121,120,121,121,120,122,122,121,121,120,121,121,121,120,122,122,122,121,120,121,120,121,121,121,122,121,121,121,120,121,122,120,121,121,121,121,121,121,122,121,122,121,120,121,120,121,122,120,121,121,121,121,121,121,121,121,122,121,122,122,120,120,121,122,122,122,121,121,121,120,121,121,122,122,121,121,120,121,123,121,122,121,120,121,120
121,121,120,121,121,121,121,120,121,121,122,121,120,121,121,121,121,122,121,121,121,121,122,121,120,121,121,122,121,121,121,120,121,121,122,122,121,121,121,121,120,121,120,122,121,121,122,120,121,121,121,122,121,120,121,120,120,121,121,122,121,121,122,120,120,121,121,121,121,121,121,119,120,121,121,122,121,121,121,120,121,120,120,121,121,121,121,121,120,122,121,122,122,121,121,120,120,121,121,122,122,122,121,120,121,122,121,121,121,121,121,121,120,121,121,122,122,122,122,120,121,122,120,121,121,121,121,121
120,127,121,122,121,120,121,120,120,115,121,122,121,121,122,120,121,124,121,122,120,121,121,121,120,122,121,121,121,121,121,120,121,122,121,122,121,121,120,120,120,120,121,122,121,121,121,120,120,121,120,122,121,121,122,121,121,122,121,122,122,121,122,120,120,121,121,121,121,121,122,121,121,122,121,121,120,121,121,120,121,122,121,121,121,122,122,121,120,121,121,122,122,122,122,120,120,121,121,122,121,121,121,120,121,122,121,122,122,121,121,120,120,121,121,122,121,121,122,120,121,122,120,121,121,122,122,120
121,122,121,122,121,120,121,120,120,121,120,121,121,121,122,121,120,120,121,121,121,120,121,120,121,122,120,121,120,121,121,120,121,123,121,122,122,121,122,120,121,122,122,122,121,121,121,120,121,121,121,122,121,122,122,121,119,119,121,122,121,121,122,120,120,121,120,121,121,121,122,120,120,123,121,124,122,122,121,120,121,122,121,120,121,121,121,121,121,122,121,121,121,120,121,121,120,121,121,121,121,121,120,119,120,121,120,122,122,121,122,121,120,121,121,125,122,121,122,120,120,121,121,121,121,121,120,119
121,121,121,122,121,121,121,120,120,120,120,122,122,121,121,120,120,121,121,122,122,121,120,119,120,121,120,121,121,121,122,121,121,122,121,121,121,121,121,121,121,121,120,121,121,121,122,120,121,122,121,122,121,121,122,121,120,122,121,122,121,120,121,120,121,122,121,121,121,121,121,120,121,122,121,122,122,121,120,120,120,120,121,122,122,121,121,120,120,121,121,122,121,122,122,120,121,117,121,121,121,121,121,120,120,123,121,122,121,120,121,120,120,121,120,121,121,121,122,121,122,123,121,122,121,121,122,121
120,122,121,122,122,121,121,120,120,121,121,122,122,121,120,120,121,122,120,120,120,121,121,121,120,121,121,122,121,121,121,120,121,121,120,121,121,121,121,121,121,121,120,121,121,121,121,121,121,121,121,121,120,120,121,120,121,122,120,121,121,121,122,121,121,121,120,121,121,121,121,121,121,123,121,121,121,121,121,121,121,121,121,122,121,120,121,120,121,121,121,121,120,121,121,121,121,122,121,121,121,121,121,121,121,121,121,122,121,120,120,120,120,121,121,122,121,121,121,120,121,127,121,122,121,122,121,120
121,118,120,122,122,122,122,121,120,122,120,122,121,122,121,119,120,121,120,121,121,121,122,120,121,122,121,121,120,121,121,120,121,121,121,122,122,122,121,120,121,122,121,122,122,121,122,121,120,122,121,122,121,121,120,120,121,122,121,121,120,120,121,120,121,121,120,121,121,121,121,121,121,121,121,122,121,120,121,120,121,121,120,121,121,121,122,121,121,122,121,122,120,120,121,120,120,121,121,121,121,122,121,120,121,122,121,124,121,121,121,121,120,121,121,121,121,121,122,120,120,121,121,122,121,122,122,120
120,121,120,121,121,121,121,120,120,121,120,121,121,121,121,120,121,123,121,122,122,122,122,120,121,122,121,122,121,122,121,120,120,120,120,122,121,121,122,121,121,123,120,122,122,121,122,120,121,122,122,122,122,121,120,120,121,122,120,121,121,121,121,120,120,120,120,122,121,122,121,120,120,121,121,122,122,121,120,119,121,122,121,122,121,120,120,120,120,122,121,122,120,121,122,121,121,122,121,121,121,121,121,121,120,121,121,121,120,120,121,121,120,121,121,121,121,121,121,120,122,122,121,122,121,121,121,121
121,121,120,121,121,121,122,120,120,121,120,121,121,121,121,120,120,121,121,122,122,121,121,119,121,122,121,122,121,121,122,121,120,120,121,122,121,121,122,120,121,123,122,121,120,121,121,121,121,122,121,122,121,120,121,120,120,125,121,122,121,121,122,120,120,118,120,122,121,121,122,120,121,123,121,122,122,121,121,121,120,122,121,122,121,121,120,120,121,122,122,122,121,121,121,121,121,122,121,121,121,121,121,120,121,122,121,122,122,122,121,120,120,120,120,122,121,121,122,120,120,122,121,121,121,121,122,120
120,121,120,122,121,121,121,120,121,122,121,122,122,121,122,121,121,120,120,121,121,121,122,121,120,121,121,122,121,122,122,120,120,121,121,121,121,121,121,120,121,122,120,123,121,122,122,120,120,120,120,121,121,121,122,121,121,122,121,121,120,120,121,120,121,122,121,122,122,122,121,120,120,121,121,122,121,122,122,120,120,121,121,123,122,121,121,120,120,121,121,122,121,121,122,120,121,118,121,122,122,121,121,120,121,123,121,122,121,120,121,120,121,122,121,121,120,121,121,121,121,122,121,122,121,121,121,120
120,121,121,122,121,120,121,120,121,122,121,122,120,120,121,120,120,121,121,122,122,121,120,120,121,122,121,121,121,120,120,120,121,121,121,121,121,121,121,121,121,121,121,122,122,121,121,120,120,122,121,122,121,121,122,120,121,122,122,122,122,122,122,121,121,122,120,121,121,121,121,121,121,122,121,121,121,121,121,121,120,121,121,122,121,120,121,120,121,121,120,121,121,121,121,121,121,122,121,122,121,121,120,120,121,122,122,122,121,121,121,121,120,121,121,122,121,122,122,120,121,123,121,122,121,121,121,120
121,120,120,121,121,121,122,121,120,123,121,122,122,121,120,120,120,120,120,122,121,121,121,120,120,122,121,122,122,121,121,120,121,121,121,122,122,121,122,121,120,121,121,122,121,121,122,121,120,122,121,122,122,121,121,120,120,121,121,122,121,120,120,120,120,121,122,122,120,120,121,120,121,122,121,122,122,121,121,121,121,121,121,121,121,120,121,120,120,122,121,123,122,121,121,120,121,122,121,121,121,120,121,120,120,120,120,121,121,121,122,121,120,121,120,122,121,121,122,120,121,122,121,121,120,121,121,120
120,121,121,121,121,121,122,120,121,122,120,121,121,121,121,120,120,121,121,122,121,122,121,120,120,121,121,121,121,121,121,121,121,123,122,121,120,121,121,121,119,120,121,123,122,121,121,120,121,123,121,122,122,122,122,120,120,122,121,122,121,121,121,120,120,121,121,122,122,121,121,120,121,121,121,121,120,121,121,121,121,121,120,122,121,121,122,121,121,122,121,121,120,121,121,121,121,122,121,121,120,121,122,121,121,121,121,122,122,121,121,120,121,122,121,121,120,121,121,120,121,122,121,122,121,120,121,121
120,121,120,124,121,121,122,121,121,122,122,121,120,121,121,120,121,122,121,120,121,121,121,121,121,122,121,122,121,121,122,121,121,121,120,121,121,121,121,121,120,121,121,121,121,121,122,120,120,121,121,122,122,121,122,120,120,121,121,122,122,121,121,119,120,121,121,122,121,122,121,120,120,121,120,121,121,121,122,121,121,125,120,121,121,121,121,121,120,118,121,122,122,121,121,120,121,124,121,123,122,122,121,120,121,123,122,122,121,120,121,120,120,120,121,121,121,121,121,121,120,120,120,122,122,121,121,119
120,121,121,122,122,121,121,120,120,122,121,122,121,122,121,119,120,121,120,122,121,121,121,121,120,121,121,122,122,122,121,120,121,121,120,121,121,121,121,121,120,122,121,122,120,120,121,120,121,121,121,122,121,120,121,120,120,120,119,121,121,121,121,120,121,122,121,121,120,121,121,121,121,122,121,122,121,122,122,121,120,121,121,122,121,121,121,120,121,122,121,121,120,121,121,120,121,122,121,122,120,120,121,120,120,121,121,121,121,121,122,120,121,122,121,122,121,120,120,120,120,121,121,122,121,121,121,120
121,121,120,121,121,121,121,121,120,121,121,122,122,121,121,120,121,122,121,122,121,122,122,121,121,124,121,121,121,121,121,121,120,119,120,122,121,121,122,120,120,122,120,122,121,122,122,120,121,123,121,122,121,121,122,121,121,122,121,121,120,121,121,120,121,122,120,121,121,121,122,121,119,120,121,121,121,121,122,121,121,121,122,122,120,120,121,120,120,121,121,122,122,121,121,119,121,122,120,121,121,121,121,121,120,121,121,122,122,122,121,120,121,122,121,121,120,121,121,120,121,122,121,121,120,121,121,120
120,121,121,122,121,121,120,120,121,120,120,122,121,121,122,120,121,122,121,121,120,121,121,120,121,122,122,121,121,121,122,121,121,121,120,121,121,121,122,121,121,122,121,121,120,121,121,120,121,122,121,122,121,121,122,121,120,120,120,122,121,121,122,120,120,121,121,122,121,121,122,120,121,127,122,122,121,121,122,121,119,117,121,122,122,121,120,120,120,123,121,122,121,121,120,119,120,121,121,122,122,121,121,120,120,121,121,122,121,120,121,120,121,121,120,122,121,121,122,121,121,122,121,122,121,121,120,120
121,122,121,123,122,121,121,121,120,120,120,121,121,121,122,120,120,122,121,122,120,120,121,120,119,119,120,122,121,121,122,120,121,122,121,122,121,121,120,120,120,122,121,122,121,121,122,120,121,122,122,124,121,120,121,121,121,122,121,121,120,121,121,121,120,122,121,121,121,121,122,120,121,127,121,121,121,121,121,121,121,116,121,121,121,120,121,121,120,123,121,122,122,122,121,120,121,123,122,122,121,120,121,120,121,121,121,122,122,121,121,120,121,121,120,122,121,121,122,121,120,121,121,121,121,121,122,120
121,121,121,122,120,120,121,120,121,122,120,122,121,121,121,121,120,121,121,122,122,121,121,120,121,122,122,122,121,121,121,121,121,121,120,121,120,121,121,121,120,120,120,121,120,121,121,120,121,122,122,122,121,121,121,121,121,122,121,122,121,120,121,120,121,122,121,122,122,121,121,120,120,122,121,122,121,120,121,120,121,121,121,122,122,122,121,120,120,121,121,122,122,122,121,119,121,120,121,121,121,121,121,121,120,122,121,122,121,122,122,120,120,123,121,122,120,120,121,120,121,122,122,122,121,121,122,121
120,121,121,122,122,121,121,120,121,122,121,121,121,121,121,120,121,121,120,121,121,121,122,121,121,123,122,122,121,122,122,121,120,121,121,122,122,121,121,120,120,120,120,121,121,121,121,121,120,122,121,122,121,120,121,120,121,122,121,122,121,120,121,120,120,120,121,122,121,121,121,121,120,121,121,122,122,122,121,120,121,122,121,121,120,120,121,120,121,121,120,122,121,121,122,120,121,125,121,122,121,120,121,120,121,115,121,121,121,121,121,120,120,123,121,121,121,121,122,120,121,123,122,122,121,120,120,120
120,122,121,122,122,122,122,120,120,120,120,121,121,121,121,121,121,122,121,121,121,121,122,120,121,122,122,122,121,121,120,120,121,121,121,122,122,121,121,120,120,121,121,122,121,121,121,121,120,121,121,122,121,121,122,120,120,120,121,122,121,121,120,120,120,122,121,122,120,120,121,120,121,122,122,122,122,122,122,120,120,121,120,121,121,121,122,121,120,120,121,122,121,121,121,120,121,120,120,121,121,121,122,121,119,121,121,122,122,121,120,119,121,122,121,122,121,121,122,121,120,121,121,122,122,121,122,120
121,122,122,122,121,120,121,120,120,121,121,122,121,122,121,120,121,122,122,122,121,121,121,121,120,121,120,121,121,121,121,121,121,122,121,121,121,121,121,121,121,121,120,121,121,121,121,121,120,122,121,122,122,121,121,121,120,122,121,122,121,120,121,120,121,121,120,121,121,121,121,121,120,121,121,122,121,121,122,120,120,121,121,122,121,121,120,120,121,122,120,121,121,121,122,121,121,122,121,122,121,120,121,120,121,122,120,121,121,121,121,121,120,127,121,122,122,121,121,119,120,117,121,122,121,121,121,120
121,124,120,121,121,121,122,120,121,123,122,121,121,121,122,121,121,121,121,122,121,121,121,120,121,121,120,121,121,121,122,121,120,121,121,122,121,121,122,120,121,121,120,121,121,121,121,121,120,121,120,122,121,121,122,120,120,122,121,122,121,121,122,120,120,120,120,121,121,121,121,120,120,121,121,122,121,121,121,120,120,121,121,122,121,121,121,120,121,122,121,122,120,121,121,120,121,122,121,122,121,121,122,121,121,121,121,122,121,121,121,121,120,124,120,122,122,121,122,119,120,116,120,122,121,122,121,120
121,124,120,121,121,121,122,121,120,122,121,122,122,122,121,121,121,122,120,121,121,121,121,121,120,121,121,122,122,121,121,120,121,123,122,122,121,120,121,120,120,121,121,121,121,122,122,120,121,121,120,121,121,121,122,121,120,121,121,122,121,121,120,120,120,121,120,122,121,122,122,120,121,122,121,122,121,120,121,120,121,123,122,122,121,121,122,121,120,120,120,122,121,121,122,121,121,122,121,121,120,121,121,120,121,123,122,121,120,121,121,121,121,122,121,122,122,122,122,121,121,121,121,122,121,121,121,119
120,121,120,122,121,121,122,120,121,121,120,121,121,121,122,120,120,122,121,122,121,121,121,119,121,122,122,122,120,121,121,120,121,118,120,121,121,121,122,121,121,123,121,121,120,120,121,120,120,123,121,122,121,120,121,120,121,121,121,122,122,121,121,120,120,121,121,122,121,120,120,120,121,122,121,122,121,121,121,120,120,121,121,122,121,122,121,120,120,122,121,122,122,121,121,120,121,121,122,121,120,120,121,121,121,122,121,121,120,121,121,121,120,122,121,122,121,121,121,120,121,122,121,121,120,121,122,120
120,121,121,122,121,120,121,120,120,121,121,122,121,120,120,120,120,121,120,122,121,121,122,120,121,121,120,121,121,121,122,120,121,122,121,122,122,122,122,120,120,121,120,122,121,121,121,121,121,118,122,122,121,121,121,120,121,123,120,121,121,121,122,121,120,122,121,122,122,121,121,120,121,121,121,121,121,121,121,121,120,121,121,122,122,121,120,120,120,121,120,121,121,121,122,121,121,122,122,122,121,121,122,121,121,121,121,122,122,121,121,121,121,121,121,122,121,120,121,120,121,121,120,122,121,121,122,121
120,121,121,122,122,121,120,119,120,122,121,122,122,121,120,120,121,122,121,121,121,121,121,121,121,121,121,122,121,121,121,121,120,121,120,122,121,121,122,120,121,121,120,122,121,121,122,120,121,122,122,121,121,121,122,121,121,123,121,122,121,121,122,120,121,123,121,122,121,121,121,120,121,114,120,121,121,121,121,121,120,124,121,122,122,122,121,120,120,121,121,122,121,121,121,119,121,122,120,121,121,121,121,121,120,122,121,122,121,121,122,120,120,122,121,122,120,120,121,120,121,121,121,121,120,121,121,121
121,122,121,121,121,121,121,121,121,122,121,122,120,121,121,120,120,121,122,122,121,120,121,120,121,121,121,122,122,121,122,121,121,122,121,122,121,120,120,120,121,122,121,122,121,122,122,120,120,120,120,121,121,121,121,120,120,121,121,121,121,121,122,120,120,121,121,121,121,121,122,121,120,122,121,122,120,120,121,120,121,126,120,121,121,121,121,121,120,115,121,122,121,120,121,120,120,124,121,122,122,120,121,120,121,122,121,121,121,121,122,121,121,122,122,122,121,121,122,121,121,122,121,121,121,120,121,121
121,120,120,122,121,121,121,120,119,119,120,122,121,121,121,120,120,121,121,122,121,121,121,120,121,122,121,122,121,121,120,120,121,122,121,122,122,121,121,121,120,121,121,122,121,121,121,120,121,122,121,121,122,121,121,121,120,121,121,122,121,121,121,120,120,122,121,122,120,120,121,120,121,122,121,122,121,121,122,121,120,121,121,122,122,121,120,120,121,121,120,121,121,121,121,120,121,120,121,121,120,121,121,120,119,121,120,122,121,122,122,120,119,121,121,122,121,120,120,120,121,123,122,122,122,121,120,120
121,122,121,122,122,121,121,120,120,122,121,122,121,121,121,120,121,121,121,121,120,120,121,121,120,121,121,122,121,121,121,121,121,122,121,122,122,121,120,120,121,121,121,122,121,121,122,120,121,122,121,122,121,121,122,121,120,121,121,122,120,121,121,120,120,122,122,122,121,120,121,120,121,122,122,122,120,120,121,120,120,122,121,122,121,120,121,120,121,121,121,122,122,121,121,120,120,118,121,122,121,121,122,120,119,121,120,122,122,121,121,120,121,123,121,122,120,121,121,120,121,122,122,122,121,121,121,121
121,121,121,122,121,121,121,120,121,121,120,121,121,121,121,120,121,122,121,122,121,121,122,120,121,122,121,122,122,121,121,119,120,121,121,122,121,120,121,121,119,119,120,122,121,121,122,120,121,121,121,122,121,120,121,120,120,122,121,122,121,121,121,120,121,121,122,122,121,120,121,120,120,121,121,121,120,121,121,121,121,122,121,122,121,120,121,120,121,122,122,122,121,120,121,120,121,122,122,122,121,121,122,121,120,121,121,122,121,120,121,120,121,123,120,121,121,121,122,120,119,114,120,122,121,121,122,120
121,124,121,122,120,120,121,120,121,122,121,121,121,120,121,120,120,122,121,122,121,121,121,119,120,121,121,122,121,121,122,121,120,121,121,122,121,121,121,119,121,121,121,122,121,121,122,121,120,121,121,122,122,121,121,119,120,121,120,122,121,121,122,120,121,122,121,121,121,121,121,120,121,122,121,122,121,120,121,120,120,122,121,122,122,121,121,119,120,121,120,121,121,121,121,121,121,122,121,122,120,121,121,120,120,121,121,122,121,121,122,119,121,123,121,122,121,121,122,121,120,121,122,122,121,121,121,120
121,122,120,121,121,121,121,120,120,121,121,121,121,121,122,121,121,118,121,123,121,121,122,121,119,122,121,122,121,120,121,120,121,122,120,122,121,121,121,121,121,122,121,121,120,121,121,120,120,122,121,122,121,121,120,120,121,121,121,122,122,121,121,120,121,121,120,121,121,121,122,121,121,122,120,121,121,121,122,121,120,121,121,122,121,121,121,120,122,121,121,122,122,121,122,121,121,122,121,121,121,122,122,121,121,122,121,122,121,120,121,120,120,121,120,121,121,121,122,121,119,120,121,121,121,121,122,121
120,120,121,122,121,121,121,120,120,121,121,121,121,121,121,120,121,122,121,122,122,121,120,120,119,119,120,122,121,121,122,120,120,122,121,122,121,121,121,120,121,127,122,122,121,120,121,120,121,117,120,121,121,121,121,121,120,123,121,122,121,122,122,120,121,122,122,122,121,120,121,120,120,120,120,122,122,122,121,120,120,121,121,122,121,121,121,120,121,121,121,122,122,122,121,120,121,122,122,122,121,122,122,120,121,122,121,122,121,121,121,120,119,119,120,121,122,122,121,120,120,122,122,122,121,120,121,120
121,121,120,121,121,121,122,121,121,122,121,122,121,121,122,121,121,122,120,121,121,121,121,120,121,122,122,122,121,120,121,120,120,121,121,122,121,121,121,119,121,128,121,121,121,121,121,121,120,115,120,121,121,121,122,121,120,123,120,121,121,121,121,121,121,122,121,122,120,120,121,120,121,122,121,122,122,121,121,120,121,121,120,121,120,120,121,120,120,121,121,122,121,121,122,120,120,121,121,122,122,121,121,120,120,121,120,122,121,121,122,120,120,122,121,122,122,121,121,120,121,122,121,122,121,121,122,120
121,121,120,121,121,121,122,120,120,120,120,121,121,121,122,121,121,122,121,122,122,121,121,121,121,122,120,121,121,121,121,121,121,123,121,121,121,120,121,121,121,127,121,122,121,121,121,121,120,115,121,122,121,121,121,120,121,123,120,121,121,121,121,120,122,123,121,121,121,121,122,121,121,121,120,121,121,121,122,121,120,120,120,121,121,121,121,120,120,122,121,121,121,121,121,120,120,121,121,122,121,121,122,120,121,122,121,121,120,120,121,120,121,122,121,122,120,120,121,120,121,121,121,122,121,122,122,120
121,122,120,122,121,122,121,120,120,122,121,122,121,121,121,120,121,122,121,121,120,121,122,121,120,121,121,122,121,121,121,119,120,122,122,122,120,120,121,120,121,122,122,121,120,120,121,120,121,121,120,121,121,121,122,120,120,121,121,122,121,121,121,120,121,125,121,122,121,121,121,120,120,115,121,122,121,121,121,120,120,124,120,121,121,121,121,120,121,122,121,122,121,121,122,121,121,121,121,122,122,122,122,120,120,120,120,122,121,121,122,120,121,121,120,121,121,121,122,121,120,121,121,122,122,122,121,119
121,121,120,121,120,120,121,121,121,122,121,122,122,122,122,121,120,121,121,122,121,120,120,120,120,122,121,122,121,120,121,120,120,121,121,122,122,121,121,120,121,122,122,121,120,120,121,120,121,121,120,122,121,121,122,121,120,121,121,122,121,122,120,119,120,121,121,122,121,121,122,121,120,121,121,122,121,121,120,118,121,122,121,121,119,121,122,122,119,120,120,120,121,121,120,119,121,123,122,121,121,121,121,121,120,121,121,123,122,121,121,119,121,122,120,122,122,122,122,120,120,121,120,121,121,120,120,119
122,122,121,121,121,123,129,122,120,122,121,122,122,124,129,121,123,124,122,122,121,122,126,119,120,121,121,122,121,121,119,118,120,122,121,122,121,119,120,119,120,121,121,122,121,121,116,118,120,121,121,122,121,121,123,121,122,123,121,120,115,118,117,116,119,121,120,121,122,118,113,114,113,119,119,120,120,120,114,122,137,125,122,124,129,126,129,128,114,122,122,124,124,117,107,104,120,122,120,121,122,123,127,137,108,120,120,121,121,119,108,87,121,118,117,111,105,116,117,113,131,122,120,121,112,112,113,130
115,124,123,124,116,122,131,115,112,118,120,122,131,122,107,103,115,123,121,121,116,118,131,112,129,120,120,120,119,117,117,126,112,116,118,118,117,118,89,98,119,124,120,116,112,122,147,174,131,127,122,118,116,131,127,101,108,116,118,119,114,111,119,109,114,122,120,113,98,121,122,102,137,128,125,132,147,130,150,180,118,118,117,119,121,119,126,105,111,118,120,121,120,121,115,107,121,121,121,118,110,118,118,133,133,124,124,129,132,124,138,166,115,120,120,120,119,118,116,101,102,119,119,121,120,119,111,72
127,122,121,122,121,120,121,148,124,121,120,121,121,119,129,130,115,118,120,121,120,118,109,91,112,122,122,119,111,122,111,140,135,126,122,123,122,124,142,124,114,120,120,121,117,121,112,108,119,121,121,121,120,120,119,136,132,121,120,121,122,118,115,109,116,119,125,134,173,134,134,147,131,121,119,118,124,122,114,106,102,124,121,122,120,119,121,117,122,119,121,123,122,121,109,110,118,123,123,123,124,128,131,127,122,123,119,114,105,112,100,102,123,125,123,126,132,132,152,146,106,120,121,124,125,120,122,89
130,125,124,129,140,129,138,151,113,119,119,115,102,110,96,100,125,121,121,126,127,119,125,120,124,121,120,122,122,119,121,135,118,121,121,121,119,119,118,105,121,122,121,122,121,119,121,119,125,119,119,120,120,119,120,119,117,122,119,120,120,118,116,96,118,113,121,123,124,126,129,128,148,125,120,119,119,115,105,149,81,118,119,125,143,118,95,66,126,122,121,119,113,120,127,143,113,123,121,121,121,126,115,140,135,121,121,121,122,122,123,113,131,122,119,122,134,123,119,125,113,120,120,120,123,127,136,118
118,120,120,119,117,116,104,112,116,123,121,122,118,118,116,115,119,122,123,123,124,124,132,133,124,122,121,121,125,118,116,112,115,120,120,125,143,124,123,125,123,122,121,122,119,121,120,120,117,122,123,123,122,123,123,126,131,123,120,118,106,121,120,122,120,119,116,112,97,113,116,130,103,120,120,120,117,119,111,88,138,121,121,122,121,119,127,131,123,109,117,120,120,125,146,143,117,122,123,122,122,127,112,113,127,121,119,119,123,121,105,120,120,121,122,125,116,121,138,135,115,126,119,116,110,126,112,95
127,117,121,119,111,118,116,165,116,121,120,123,141,120,116,100,124,121,119,119,111,120,122,105,116,120,121,122,129,129,104,113,122,122,120,124,134,123,118,127,105,118,118,117,114,121,109,77,126,122,121,120,117,123,131,167,130,125,124,123,122,125,127,123,117,121,121,121,120,117,115,101,126,123,122,122,119,119,124,125,118,116,119,120,122,121,124,106,119,126,121,121,115,111,118,145,139,117,122,125,132,126,130,125,113,119,117,117,113,112,123,107,126,122,119,119,114,119,123,128,130,126,127,131,152,134,142,139
120,123,123,127,118,128,121,97,110,119,119,119,108,120,127,113,121,120,119,118,116,117,117,104,117,121,121,122,126,123,127,117,133,123,122,124,121,122,127,179,119,122,122,125,128,128,118,128,117,118,120,120,117,118,133,110,131,123,119,119,119,119,122,111,114,124,120,120,122,117,118,120,116,118,119,120,112,119,117,137,122,125,124,124,126,120,117,109,124,121,121,123,116,117,112,129,99,122,120,109,77,112,88,74,135,129,128,155,218,138,143,176,111,107,119,115,91,125,95,90,135,124,117,120,123,122,124,199
124,119,122,122,121,126,136,117,112,121,120,121,119,119,118,123,134,123,123,123,123,121,123,163,115,122,120,122,125,119,114,110,103,119,119,121,120,116,107,89,139,124,123,121,117,129,137,180,130,120,120,114,112,117,106,118,125,133,127,126,109,126,150,162,92,115,119,121,124,116,94,48,151,120,122,124,129,134,149,140,114,120,119,113,97,118,121,123,116,125,124,132,148,120,116,109,111,122,121,120,115,115,120,120,136,122,122,121,120,125,135,146,105,122,121,122,133,120,107,86,131,122,119,118,130,126,110,127
114,119,121,131,146,122,124,109,124,120,121,120,118,120,120,142,116,123,123,123,123,130,138,131,138,122,121,123,138,126,103,154,124,124,125,143,180,121,110,121,109,122,121,117,111,116,114,101,125,122,123,127,125,119,126,111,133,118,119,116,108,116,111,138,119,123,120,120,126,126,127,103,121,124,121,122,118,117,112,163,152,109,115,118,120,122,124,127,116,124,120,124,120,114,105,124,129,125,121,115,98,121,160,135,108,120,119,122,125,119,98,82,118,120,123,125,125,122,140,99,126,124,123,126,128,117,132,141
118,122,124,133,155,130,123,106,129,125,124,128,130,120,122,146,106,128,122,123,123,127,125,95,139,118,122,130,145,120,116,135,108,121,120,125,127,122,116,101,113,119,119,120,109,112,98,103,131,124,123,125,132,123,125,100,123,122,120,121,120,124,119,109,123,121,119,119,118,117,120,87,119,114,119,121,125,125,146,159,116,122,122,124,126,122,109,120,114,125,122,123,120,120,113,96,129,121,119,116,116,122,112,123,122,122,121,123,125,118,125,123,124,121,120,115,91,123,124,151,114,124,123,119,104,114,113,109
121,123,119,120,121,123,133,119,107,119,121,121,120,120,116,119,134,116,118,119,118,120,113,112,101,116,121,119,117,124,106,101,127,123,121,120,126,121,125,144,124,125,120,119,122,116,103,129,132,123,123,124,122,128,145,119,114,114,118,120,120,117,92,86,116,118,120,122,121,119,120,118,119,125,121,120,117,121,127,124,116,124,122,123,121,117,118,130,138,123,124,124,124,125,141,176,110,121,120,118,109,123,103,117,105,117,119,118,112,124,120,121,148,115,117,113,102,118,114,144,112,127,124,136,140,119,109,111
124,122,121,129,151,124,127,131,106,117,116,119,113,114,103,79,134,123,123,124,125,131,173,225,116,120,120,118,112,114,101,97,130,123,122,123,124,125,152,173,116,120,120,121,125,118,100,122,123,115,119,117,108,122,128,126,115,122,119,113,91,115,113,102,112,120,118,120,121,117,128,133,114,119,122,123,124,118,110,105,118,122,120,121,120,124,106,119,119,118,120,121,121,122,123,119,121,121,119,118,116,120,131,129,116,126,122,124,131,117,101,107,114,120,122,122,122,127,140,90,136,116,119,124,121,121,122,113
111,122,121,118,95,111,100,115,117,122,120,120,115,118,118,112,115,129,122,121,119,127,127,119,126,113,118,116,105,114,121,121,117,118,120,124,114,120,124,111,115,125,122,124,127,133,127,125,128,124,120,117,118,125,132,111,129,125,123,123,122,120,153,147,128,120,120,121,121,115,116,127,120,123,123,128,133,125,113,123,106,123,121,120,110,114,111,74,132,117,120,121,123,121,111,187,118,122,122,122,118,121,123,101,113,126,123,127,136,122,127,139,115,127,120,122,119,122,113,77,132,112,121,127,146,120,122,159
118,123,122,122,133,129,133,124,121,122,120,119,113,112,105,102,126,125,121,121,122,121,136,155,115,120,121,121,120,120,102,110,122,122,122,123,122,123,115,114,123,124,121,122,123,119,134,120,117,117,119,117,104,118,120,123,117,121,121,123,118,115,128,127,121,126,123,123,122,120,118,123,121,117,119,117,118,118,100,116,109,121,120,124,126,127,146,126,131,125,121,120,122,122,135,146,130,119,120,124,126,118,121,113,109,113,119,112,104,125,104,130,115,120,121,128,140,120,120,114,118,124,119,117,120,115,102,109
125,125,122,120,115,119,111,100,112,119,118,120,119,113,109,111,110,112,116,111,112,118,125,130,119,124,122,133,147,121,112,96,118,124,123,125,130,123,132,121,119,121,121,121,118,116,107,107,120,121,121,123,122,123,122,131,127,121,120,123,130,124,121,146,116,119,118,113,101,107,117,107,119,124,119,120,117,115,94,122,126,123,123,124,120,118,138,149,130,118,118,117,119,115,111,87,120,133,122,120,134,128,121,145,124,117,120,121,120,118,133,110,125,123,121,126,121,118,123,116,121,119,119,115,115,122,132,156
123,120,120,119,140,119,106,106,108,126,123,123,117,122,124,92,121,123,122,121,120,119,111,103,126,121,121,120,110,115,116,125,114,121,119,115,104,112,107,92,125,122,120,123,115,120,134,152,109,120,120,121,120,115,85,88,134,123,121,121,122,123,123,128,110,115,119,121,121,122,110,108,132,123,121,123,126,122,125,116,118,121,121,122,122,120,120,118,116,113,120,121,121,120,123,125,127,122,120,122,120,120,109,108,117,122,122,128,134,121,121,111,120,126,124,129,145,129,121,125,120,122,122,121,120,123,121,107
127,122,120,122,115,117,109,127,111,122,123,125,121,119,121,94,121,121,121,120,118,115,123,118,114,121,120,122,123,125,121,109,133,120,123,129,139,129,146,146,111,119,119,116,102,114,112,93,112,121,121,122,122,119,112,95,106,120,120,121,120,118,125,111,126,116,119,121,112,129,145,138,125,123,122,124,128,119,111,119,120,126,123,126,123,123,139,166,123,121,122,130,144,121,116,102,125,120,120,120,123,126,122,138,122,124,121,122,121,121,121,121,126,119,119,121,123,122,132,129,115,121,120,118,113,118,112,113
114,123,121,122,117,122,115,117,123,120,120,118,107,116,124,119,118,115,118,118,115,120,138,121,117,123,120,120,116,116,110,116,110,119,121,117,105,119,116,106,120,121,120,125,131,121,121,111,128,122,122,118,107,127,110,97,115,127,123,128,123,121,132,134,131,120,121,120,120,119,125,130,123,128,121,122,121,122,119,126,116,116,120,120,115,120,122,114,119,121,121,118,113,124,113,104,120,124,122,125,118,117,108,120,124,122,120,119,117,116,128,125,119,124,123,123,124,120,125,128,119,119,120,122,122,122,133,116
112,117,118,119,111,120,117,128,126,123,119,119,119,118,111,133,117,118,120,120,120,118,82,76,141,120,116,122,119,125,138,139,109,119,121,123,123,114,100,104,110,118,119,119,108,132,152,115,132,124,121,121,116,112,108,126,110,119,120,121,121,123,122,109,129,124,123,122,120,122,130,131,122,121,120,120,114,121,105,110,116,120,120,117,112,117,112,95,121,123,121,124,117,121,133,153,120,121,123,124,124,123,127,113,120,122,121,120,121,121,126,113,123,122,120,120,119,115,109,117,114,123,123,123,119,122,130,123
131,118,120,122,121,119,121,131,113,109,114,113,113,117,108,111,125,124,123,127,120,125,104,124,123,124,123,122,100,118,130,132,117,122,122,122,136,125,97,113,124,129,124,131,131,131,142,142,112,116,118,123,116,115,111,97,122,116,118,106,117,119,119,119,112,124,124,132,121,123,117,112,141,124,122,120,130,131,171,239,120,125,120,120,118,122,120,114,127,119,119,113,108,115,111,100,111,120,122,125,122,121,114,106,129,122,118,117,115,123,111,146,109,130,120,117,113,116,102,92,132,113,124,128,124,122,134,135
126,119,118,119,119,116,117,129,111,122,120,120,122,120,110,107,116,124,122,127,138,122,109,106,111,127,123,123,128,126,124,120,134,118,122,130,146,134,137,125,115,125,120,123,119,116,116,116,114,114,119,115,107,111,116,107,129,125,124,126,119,124,143,154,125,125,123,123,123,121,133,133,121,122,120,121,115,111,126,110,121,119,121,124,135,122,131,144,130,118,121,120,114,123,128,122,121,122,120,119,121,119,102,123,119,121,122,132,124,122,116,116,116,126,122,120,118,119,125,128,131,121,124,129,142,121,123,123
111,119,121,127,132,124,122,112,120,120,120,123,118,116,111,110,121,124,122,123,122,122,127,144,119,121,121,123,126,126,110,108,121,122,122,125,121,117,130,117,124,118,119,120,121,121,120,118,110,116,119,119,123,117,135,101,128,125,121,120,117,117,97,127,125,125,122,123,123,122,154,154,116,122,122,122,120,117,125,106,115,122,121,121,121,122,119,118,119,113,120,123,127,118,119,99,117,119,120,120,129,129,123,124,114,123,121,125,120,118,118,109,124,121,121,122,119,117,110,113,126,127,122,119,114,120,123,136
116,117,119,122,123,119,113,113,118,120,119,120,124,120,114,125,124,122,121,121,125,122,128,116,118,122,121,125,122,120,122,102,119,121,121,122,127,120,112,108,129,122,121,123,115,119,126,156,118,123,122,123,123,123,114,98,128,123,122,123,123,126,133,156,121,123,121,125,131,121,119,111,117,113,118,116,110,118,119,107,108,124,121,122,123,122,118,100,133,123,122,122,124,119,117,114,122,116,118,120,123,120,112,119,117,128,126,135,166,124,104,103,126,121,121,124,117,118,117,130,100,121,120,120,123,123,112,96
146,118,121,121,120,123,133,134,125,120,121,120,121,122,132,116,117,125,120,122,121,118,134,119,117,118,119,120,117,113,109,107,127,118,124,129,147,129,126,167,124,127,123,122,119,120,121,134,120,123,121,120,124,120,121,118,122,121,119,119,117,120,122,112,125,122,122,122,121,127,145,138,121,122,120,122,118,122,126,120,116,113,121,123,124,121,114,118,113,122,121,126,132,117,115,110,113,125,123,122,121,123,120,110,135,123,123,122,124,125,128,152,114,124,122,126,121,122,130,104,127,123,121,121,120,119,130,149
109,121,122,122,122,125,132,111,125,118,120,121,120,116,117,104,124,123,119,116,118,120,113,120,110,122,122,123,121,119,114,109,122,121,122,119,110,119,130,141,112,119,118,117,108,117,104,95,121,117,120,121,116,123,158,159,120,124,122,122,117,115,125,114,130,123,122,121,123,120,125,115,125,122,120,122,121,122,124,116,117,121,119,121,124,117,123,117,122,122,121,122,127,126,125,112,109,124,121,126,128,118,107,111,133,132,122,120,119,119,104,119,116,113,120,121,123,121,113,122,108,117,117,117,117,120,110,109
118,122,121,120,114,121,108,118,126,117,120,120,118,114,120,143,119,121,121,126,108,123,131,112,123,121,118,116,110,119,120,134,111,121,120,120,115,115,97,95,126,121,122,122,122,123,130,126,124,121,120,118,111,124,109,111,116,122,122,130,135,119,119,115,117,120,119,122,145,124,109,113,119,120,119,118,111,117,112,107,121,122,122,124,114,120,125,128,124,123,122,123,128,122,124,116,119,121,121,119,114,123,119,109,119,117,117,123,127,120,135,118,127,128,122,122,120,119,125,136,123,118,120,120,124,121,136,140
119,123,120,122,121,120,114,109,122,122,122,121,113,120,128,119,112,123,121,121,125,117,113,106,123,120,122,129,141,123,122,126,120,119,119,121,122,120,121,121,128,126,124,124,122,120,134,102,106,117,120,123,122,114,112,105,131,123,121,122,116,134,127,118,114,120,121,128,144,114,109,98,122,122,123,123,115,121,141,111,112,118,119,124,139,120,115,106,123,126,120,121,121,120,117,124,123,121,122,122,120,121,138,143,124,122,119,122,122,118,103,105,120,122,120,117,111,117,113,122,113,123,121,122,120,118,127,131
119,120,121,123,122,122,117,111,137,117,118,118,120,127,108,144,111,121,121,121,120,119,117,109,117,123,120,121,117,117,120,111,123,119,120,122,122,129,133,120,102,121,122,122,120,116,108,95,118,119,119,121,118,112,110,117,129,123,122,121,116,122,126,130,116,118,121,121,118,118,105,112,120,124,122,121,119,117,119,125,113,122,119,117,111,120,124,96,125,119,119,117,103,117,134,129,114,122,121,122,131,128,137,134,115,120,120,118,114,116,101,100,128,126,123,123,120,118,107,121,124,118,119,119,118,116,130,119
112,122,122,124,120,118,119,102,124,122,120,121,133,122,123,123,120,118,119,118,113,115,107,110,121,123,122,120,119,121,133,131,129,123,120,115,108,120,126,140,110,111,119,121,112,111,113,87,131,127,121,120,114,120,141,173,116,123,121,123,119,120,108,108,121,123,123,122,126,125,121,114,131,119,119,123,119,120,140,145,117,112,118,120,120,121,110,117,116,126,122,120,112,119,106,106,114,122,122,126,133,124,129,107,124,124,122,122,125,121,119,140,117,120,121,124,130,121,132,106,121,122,120,121,119,122,133,127
118,117,119,120,115,116,132,120,120,129,123,121,116,117,116,122,123,115,120,121,120,126,117,133,113,126,123,130,144,121,108,110,121,121,122,125,118,121,128,128,119,120,119,120,121,118,116,115,113,116,119,116,118,118,121,119,119,122,121,121,124,129,103,102,118,121,120,121,121,120,126,119,118,121,120,121,121,121,128,110,123,122,122,120,119,120,119,125,121,123,122,130,159,127,124,118,120,121,120,122,122,124,130,128,131,119,121,121,120,120,124,158,125,122,121,121,116,115,125,102,110,124,121,122,112,120,139,116
133,117,121,121,119,121,122,139,122,121,121,121,120,121,126,137,106,114,118,121,123,120,112,54,135,124,121,119,116,119,126,187,115,122,122,124,125,120,137,108,133,122,121,121,120,119,136,135,104,115,117,116,114,117,109,104,126,117,119,118,104,117,106,114,118,122,121,124,140,117,127,112,120,121,119,122,121,118,129,110,107,118,119,123,125,125,132,112,126,121,122,122,121,119,130,119,125,122,121,119,111,121,114,115,118,121,121,122,122,121,127,114,120,122,123,122,126,126,123,122,124,123,122,123,117,116,107,123
119,119,120,121,118,120,122,114,124,126,122,122,119,122,130,125,119,110,117,120,120,120,116,117,117,123,123,124,121,123,127,131,118,120,120,120,115,123,124,112,116,122,121,122,124,114,116,114,125,119,120,123,124,116,124,101,123,123,123,119,110,125,140,148,115,121,122,125,119,121,129,117,119,123,120,119,113,121,105,101,114,127,121,121,120,117,109,116,113,113,121,123,120,122,122,100,121,121,121,123,122,120,122,123,123,123,118,117,118,117,112,117,122,120,121,121,119,121,117,107,119,118,120,123,122,124,122,107
123,123,122,122,122,128,129,130,125,126,123,123,115,120,123,111,121,123,121,122,122,117,114,102,124,119,119,120,119,121,120,114,124,121,122,123,123,124,128,149,111,121,122,123,127,119,114,97,130,126,120,118,115,120,122,110,130,122,122,125,122,123,140,165,126,126,121,122,123,131,147,136,121,117,120,123,117,120,133,133,112,124,119,120,119,119,106,105,127,126,123,121,119,121,121,130,122,120,121,121,120,118,123,108,115,115,119,120,120,121,132,120,112,123,121,121,122,122,122,111,124,121,119,121,122,121,119,119
118,121,121,120,118,119,117,106,121,124,122,123,123,117,120,130,122,121,120,121,121,119,117,128,118,113,118,119,114,121,122,115,119,122,123,125,136,123,126,118,112,128,122,122,112,110,117,119,128,128,121,121,121,121,117,119,121,115,119,119,119,118,114,107,114,121,120,125,122,119,124,136,123,123,121,123,117,118,127,124,111,123,121,121,123,126,127,111,116,120,121,122,121,121,114,104,121,118,120,122,120,118,116,115,118,123,120,118,110,119,125,118,123,122,121,120,118,120,127,126,116,118,120,122,117,117,117,99
132,120,121,122,121,125,132,161,126,123,121,119,112,121,136,151,122,123,121,124,136,122,136,113,117,116,122,122,116,117,108,110,113,120,120,121,120,117,107,79,120,122,122,122,121,119,132,157,122,124,122,122,121,119,106,98,122,125,120,119,123,129,127,125,114,123,122,123,119,119,113,116,129,119,121,119,121,122,118,115,119,122,121,124,119,120,123,115,116,121,119,118,118,130,112,119,118,125,121,119,107,116,138,133,118,118,120,122,123,119,134,126,115,113,118,120,117,112,105,103,121,123,121,118,106,124,129,131
121,122,119,120,121,117,111,109,119,115,120,121,121,121,124,118,120,122,121,122,121,116,109,115,125,123,122,122,121,122,134,127,126,123,123,124,124,123,130,142,115,121,122,123,127,119,107,104,118,117,119,118,116,120,124,122,131,123,122,126,135,124,132,114,120,124,122,120,114,120,132,119,121,123,120,120,116,118,117,115,120,118,119,120,120,121,126,121,121,125,123,130,138,120,125,107,131,120,118,120,122,121,123,137,122,116,120,120,119,118,116,122,111,129,124,123,122,121,123,117,123,116,123,121,119,122,125,126
118,121,118,119,116,121,126,128,115,120,130,117,107,126,98,102,112,119,95,112,116,114,111,103,109,122,127,124,125,125,129,114,135,115,118,117,112,121,121,128,106,121,122,121,123,122,119,96,124,121,119,119,113,118,130,148,108,121,122,122,117,115,110,91,131,121,122,123,123,127,124,144,123,120,120,122,122,119,124,123,115,120,120,122,124,118,116,109,115,121,121,122,122,121,125,125,133,124,121,118,117,121,124,118,126,115,121,124,119,126,132,126,118,123,122,121,122,124,106,120,118,128,122,123,122,126,146,158
119,118,120,121,121,124,119,101,114,121,118,114,105,125,108,110,121,122,120,119,117,118,122,125,129,125,123,124,122,125,128,124,121,120,121,121,119,122,131,142,113,112,117,120,117,120,105,105,132,127,125,127,127,118,127,124,114,122,117,122,113,114,109,102,129,124,123,125,121,118,134,124,109,124,121,120,119,119,127,133,123,116,122,123,121,120,117,115,127,128,122,122,122,120,131,143,114,118,119,121,119,117,120,121,116,116,120,121,121,119,114,89,119,124,121,120,120,119,116,114,119,121,120,123,127,120,129,131
126,124,122,115,94,119,136,129,117,120,121,123,125,125,126,126,113,118,120,122,115,117,111,102,119,122,122,121,122,122,120,128,127,124,122,126,117,124,135,127,114,124,119,119,122,121,109,117,125,127,123,122,122,119,122,133,113,113,120,121,121,118,108,98,126,127,123,131,137,124,141,157,119,122,122,121,120,120,114,107,136,121,120,122,120,121,117,125,114,114,119,120,119,118,122,113,121,124,122,121,113,117,117,132,122,126,123,124,145,133,136,144,124,123,121,125,126,118,114,114,120,120,122,121,121,120,118,106
122,122,122,123,123,122,129,123,121,123,122,125,121,117,130,127,122,122,121,119,116,127,97,134,117,126,121,122,116,116,121,112,122,115,121,122,122,123,121,132,124,124,121,122,121,119,118,108,112,120,121,116,104,123,121,118,123,121,119,118,112,109,126,119,109,123,121,122,120,121,122,107,127,117,120,124,122,125,113,127,116,126,122,121,120,119,92,101,116,123,121,121,121,121,110,106,123,121,122,122,121,121,121,120,118,122,121,121,115,119,126,124,122,119,120,120,121,124,124,131,129,124,120,124,123,119,120,122
115,121,121,122,115,113,124,114,122,118,121,124,123,121,112,116,120,122,118,121,120,127,111,128,116,121,122,125,119,119,131,119,125,124,121,121,115,112,117,116,124,118,118,120,125,125,139,114,125,107,116,119,118,121,144,160,114,125,122,121,119,117,103,102,121,124,121,125,124,120,127,125,120,121,121,121,122,120,121,110,118,119,120,119,120,128,125,131,124,122,122,123,122,122,116,118,126,122,121,121,118,117,121,128,115,120,120,127,138,123,108,96,111,114,118,120,124,120,118,113,130,125,123,124,122,125,119,134
109,123,121,122,122,120,117,110,119,119,121,122,122,121,118,116,122,121,121,126,130,123,119,129,115,123,122,121,119,121,124,104,123,122,121,122,121,123,125,157,131,121,120,122,118,118,118,104,120,122,122,121,114,119,129,148,116,120,120,123,121,118,125,111,121,123,121,120,120,122,117,122,122,123,122,122,122,123,121,120,121,113,122,122,125,122,124,126,119,126,122,124,123,118,135,115,121,121,118,119,117,117,116,118,126,117,120,121,122,118,123,112,120,124,123,122,121,124,109,126,119,123,121,121,117,119,136,121
117,125,122,122,121,119,117,109,122,122,121,122,126,120,119,121,127,118,120,122,121,122,122,114,126,119,120,121,121,123,118,153,120,125,123,129,141,123,122,122,116,124,120,119,121,124,111,115,132,120,121,125,126,126,130,128,124,112,120,125,120,126,129,136,110,122,119,118,109,112,110,96,119,123,121,119,111,117,134,124,123,121,121,122,120,118,116,114,117,123,120,122,122,120,117,117,122,120,120,121,121,121,123,121,120,117,121,123,122,123,123,124,119,122,121,122,124,121,130,116,122,124,121,123,118,117,120,125
122,120,121,121,123,123,127,140,114,119,119,120,121,121,120,116,125,122,120,124,121,118,135,127,119,122,122,117,120,118,116,113,123,118,117,123,118,125,129,122,115,124,122,125,133,124,126,142,117,120,121,121,121,125,134,112,121,121,123,120,118,117,108,101,122,127,125,117,112,121,132,119,122,122,119,126,118,123,126,153,121,120,120,123,120,118,114,114,120,119,122,126,123,125,122,118,119,125,123,126,125,119,108,120,121,122,122,121,122,120,125,131,120,122,120,121,119,122,131,120,129,122,121,121,120,121,120,123
109,118,119,121,121,116,121,103,131,122,122,123,120,123,135,174,108,120,120,121,119,117,119,109,137,122,122,122,121,120,113,130,118,123,121,121,122,123,122,120,120,120,123,125,121,121,121,125,121,121,117,118,112,120,114,126,115,115,119,118,112,123,115,103,118,120,118,120,117,126,119,117,119,122,121,116,107,118,116,123,130,126,127,129,117,117,116,109,119,123,119,118,118,125,103,107,133,120,120,122,120,120,120,123,128,117,120,119,120,117,117,128,114,121,120,123,122,118,121,117,119,124,122,121,117,122,128,105
123,120,122,120,125,121,116,140,118,121,122,124,122,123,137,116,127,123,120,123,127,118,124,132,114,119,120,121,123,117,125,118,126,126,122,123,127,127,118,125,114,118,119,121,124,119,104,109,130,125,122,123,125,128,154,127,116,121,120,121,115,117,121,109,118,119,122,121,119,124,119,113,116,125,122,123,122,126,120,129,139,119,118,119,115,116,119,119,118,120,121,121,121,120,122,120,111,121,120,118,115,120,113,103,128,123,121,124,119,118,126,132,124,113,118,118,122,119,110,101,118,123,121,119,108,117,123,133
121,124,118,119,118,118,130,124,105,124,123,125,123,121,116,112,141,112,119,120,119,120,120,116,132,126,120,120,117,125,143,175,98,122,121,122,129,121,100,77,120,122,121,123,119,115,132,121,123,119,120,122,120,125,126,115,125,116,120,121,118,121,129,139,117,123,120,122,129,119,125,109,121,127,122,123,119,115,119,110,118,114,122,120,114,122,122,123,124,121,120,122,119,119,125,135,114,121,120,119,115,120,117,113,125,123,123,124,124,123,136,124,111,123,121,121,115,117,115,106,140,124,123,122,119,118,131,177
112,121,121,123,120,122,119,106,126,119,118,119,118,120,118,118,121,121,122,125,127,122,113,109,117,130,123,120,117,122,125,112,117,107,121,125,127,114,123,112,130,131,122,123,116,116,120,121,117,121,120,120,119,119,119,104,116,116,121,122,119,128,138,116,118,124,121,123,118,121,99,123,117,123,121,120,118,121,115,108,122,122,121,123,121,118,120,110,114,118,117,121,121,123,141,117,125,122,122,122,119,121,133,120,119,123,124,127,139,120,109,111,119,122,119,118,115,120,117,124,123,124,122,124,121,121,128,131
122,123,121,121,119,121,123,116,115,113,117,118,115,126,119,128,126,127,118,116,103,120,118,134,119,116,120,121,124,126,108,115,115,119,119,120,120,120,121,115,125,120,122,124,122,122,132,144,121,123,121,121,121,119,119,120,117,123,122,129,145,123,118,109,119,123,120,121,123,124,131,106,117,123,122,123,124,123,120,147,125,128,121,122,127,119,112,105,115,112,120,121,117,118,109,112,120,118,118,118,111,114,118,119,116,125,121,123,120,120,111,126,127,125,124,123,124,126,132,133,120,118,119,120,120,121,114,116
116,119,120,121,121,123,123,118,128,124,122,121,119,121,128,117,112,123,123,124,124,124,132,120,130,130,124,125,129,131,135,140,113,112,118,117,114,116,117,109,130,121,121,125,122,119,134,142,118,121,121,120,120,120,109,96,120,124,121,122,127,120,121,110,123,115,118,119,116,118,120,127,117,121,120,123,128,121,121,117,117,122,122,122,123,124,124,118,135,123,121,120,117,121,130,159,115,118,120,121,119,118,105,111,115,122,121,122,122,130,105,108,119,120,120,121,123,119,125,110,126,126,123,124,124,121,123,144
119,119,120,121,122,121,119,118,121,117,118,119,110,116,121,113,115,121,118,117,110,117,117,119,123,120,122,122,120,121,122,127,117,126,121,122,119,126,112,120,126,120,121,121,121,118,133,120,114,120,120,122,127,127,133,117,122,121,121,121,115,117,114,106,123,121,121,119,120,121,128,149,123,121,121,120,108,119,117,125,118,122,120,118,112,119,123,107,112,122,120,117,118,122,119,121,129,114,121,123,123,119,119,134,118,128,121,122,124,127,153,131,115,122,122,123,121,119,111,109,123,122,121,121,120,124,132,117
125,120,120,115,103,117,102,128,119,122,122,124,125,121,126,119,118,123,121,122,122,128,123,123,116,122,122,123,120,118,117,112,125,121,122,120,119,119,117,124,125,121,120,120,114,121,124,133,114,122,122,120,122,120,118,115,123,120,121,123,118,120,124,114,118,125,121,120,119,121,116,103,124,115,120,125,122,123,115,121,123,118,120,121,121,122,133,133,123,124,122,122,117,122,115,116,115,120,120,124,124,126,125,125,120,122,120,121,120,128,101,117,126,121,120,122,128,121,120,133,116,122,122,123,116,122,125,108
116,121,120,119,114,118,126,122,128,121,121,122,120,119,119,125,121,133,121,120,112,119,126,113,120,120,124,123,120,121,128,123,120,124,120,122,120,120,121,114,113,115,119,120,120,119,115,109,129,124,121,121,117,118,126,131,125,125,122,123,122,124,127,125,120,123,122,120,123,123,123,119,123,122,120,124,119,117,127,122,118,118,119,121,121,121,114,104,118,116,121,124,128,125,131,148,113,122,121,121,127,120,115,99,122,125,123,122,118,118,116,116,119,119,120,121,122,121,120,117,117,122,119,121,122,122,125,113
131,116,120,122,122,120,133,137,115,123,121,121,119,120,117,111,126,117,120,123,123,123,124,138,112,125,122,123,123,122,119,119,118,121,121,114,112,116,117,100,132,123,122,129,129,127,107,145,119,122,121,122,126,133,137,122,117,124,121,121,119,116,118,118,123,118,122,121,122,123,126,130,118,121,121,121,120,119,122,117,119,118,118,119,121,121,111,116,123,124,123,124,123,123,132,121,121,127,121,121,121,121,121,114,116,114,121,122,120,118,116,118,127,122,120,118,106,117,123,122,115,121,121,121,123,119,119,117
121,120,120,123,122,124,114,116,132,123,121,120,119,120,126,120,114,125,122,122,124,120,118,113,120,119,121,121,109,123,132,134,123,121,121,123,125,121,123,131,114,118,122,122,120,121,129,119,128,124,119,120,121,119,117,116,116,122,123,127,126,123,105,113,119,120,121,120,115,120,116,111,123,123,122,122,121,120,130,158,121,123,123,123,121,121,131,108,117,119,120,121,118,117,122,118,123,116,120,122,120,116,116,106,126,124,122,126,136,127,129,162,117,132,123,122,121,119,117,102,118,110,120,121,119,117,110,109
125,115,117,120,121,126,130,129,123,127,123,124,132,128,140,146,117,125,122,122,117,118,112,110,127,120,121,122,121,117,116,109,133,122,120,119,119,121,127,137,111,127,119,119,117,116,110,96,118,107,121,123,124,126,130,119,122,126,121,122,119,118,119,118,120,124,120,121,119,119,122,124,123,121,121,122,120,118,127,122,119,120,121,122,123,120,124,129,119,117,118,120,119,119,128,119,121,122,120,118,108,120,122,123,115,119,122,121,123,121,126,109,123,122,122,123,122,122,132,123,125,122,120,122,120,119,120,121
116,119,120,119,116,118,114,105,147,130,126,126,124,128,137,152,117,121,122,122,120,120,116,129,127,120,119,121,121,120,124,120,113,112,119,120,120,117,118,104,127,120,121,123,124,120,133,163,119,123,119,119,120,118,113,101,119,122,121,121,118,118,121,110,121,121,122,122,121,122,121,115,118,121,119,120,120,121,114,124,122,119,120,121,121,121,119,127,116,123,122,123,121,116,110,103,125,120,120,122,122,122,146,134,122,119,120,119,115,121,126,119,115,122,122,123,122,121,117,115,122,131,122,122,124,122,129,155
