0.9524036173250832
0.1749444153615305
-0.8568460634576596
-0.5416276200276677
-0.36447980518388545
-0.25595645175589865
0.29107615606406906
0.6387828237772147
0.4509424658783068
0.30891618839615487
0.2006547449267531
0.11893194277315658
0.43140486872620853
0.30119532743962407
0.19560966402906954
0.11356263957017194
0.052774652382211726
0.010212816224660044
0.3513705104013689
0.6182768800965773
0.44828600154411563
0.305362434210366
0.5596320493327271
0.7551284031494647
0.5292844064093241
0.7133611972125933
0.4836493191766403
0.668893354513984
0.8121474494620349
0.9175112787229839
0.9905830069161317
0.30008943766145646
0.49824542993126675
0.29452459656184393
0.5111977839357758
0.6868244231981208
0.8225833547378227
0.5537001472045617
0.7086424588119479
0.46092323008850766
0.267911921992547
0.12477423085551252
0.02449547685157722
0.32792812028249124
0.5728889484443791
0.3927860050603903
0.24787563638364804
0.13669671253049787
0.055646661740432965
0.3687435228447348
0.2478762178350128
0.5205622524535087
0.36212024323280356
4.65755674126415
3.1597986243882223
1.1463529625325828
-3.035016432773067
0.039490119827178205
1.796144752413023
1.316276590675907
0.5400578632421459
-0.07234534829449613
-3.113474948516725
-5.052955554500894
-4.588647717211405
-0.03429297907229323
1.3466379075877342
1.6124342350712906
1.731573984355754
-0.46345658667711165
-8.84601488245201
-3.4646860857313104
-4.975975275487793
-4.247460813607283
-0.2907904798809291
-1.2691478276092205
-5.421955383169043
-5.32761858038428
-1.1070270172504735
5.888499070706317
5.288757095519878
1.9885634648579922
3.325921827768367
3.1971699361206913
1.1773342182822684
-0.0610406200403697
1.5838998799021757
2.1564278907994128
6.2717617969084465
1.6620103167809317
-1.6472001760943826
-2.686913038571826
-3.3681744278598296
-5.243755847002899
-4.723947491555499
-5.285412280893639
-3.0363911743448297
0.9957321510615582
1.516988738830974
1.8049876990803688
1.9228448907978466
2.661297455905186
2.417031803797537
1.781546640209655
3.0822343494864306
2.581007732656358
1.0328982623951877
-5.347032212402565
-2.4787919756090115
-4.498038749744659
3.2455463332917605
-0.27934690083878166
5.730364161655337
4.441373041020597
3.2747248575930836
2.278009773607118
2.205142611325303
1.0367820483337689
1.2434058402600674
0.6965930753742393
-0.07265158788711451
0.10540358452332793
-0.07979364872564802
0.17831511194214278
0.03786360278655912
0.31487246599255503
0.17550265169808452
0.07357196954402305
0.3720623417140912
0.6103963513684355
0.42312964688648247
0.6399720246688849
0.8054737045322226
0.5567270313287739
0.3554549592062024
0.5688326657481144
0.7377994468613239
0.8653037036073534
0.5878149285305418
0.7346137654971999
0.4796899254660173
0.6493254147134835
0.7842815626163626
0.5179349032524161
0.6773202456768472
0.4348947101874685
0.6159797655889363
0.3921273797501904
0.21964971940973096
0.4619961725019608
0.28905375222523877
0.15690599225706636
0.06101229428930156
0.36431182951613417
0.2376114598445334
0.5074305895800731
0.7169083324861014
0.5029613348234485
0.32793074199377226
0.5600619978372475
0.7415650273894676
0.8766843945112177
0.6030988873601851
0.38246123127759224
0.21278110017526716
0.45743941970696345
0.6550048591596471
0.8071423058889008
0.9185123187314767
0.9952963591263709
1.0441449056007883
0.7027898293465664
0.8001336349485224
0.8774685465787175
0.936026904186487
0.9780785967151546
1.3750544662202868
-0.9054780409456018
1.753694708965976
4.955372303176594
2.9532219677859675
4.613854107466057
3.2710217486872795
3.6381185657783153
0.21176231233984755
-0.970155356191268
-0.6920838853880706
0.7239702651981323
-2.914679319210632
-3.114515360232671
-0.5713164721898516
0.7395376342448499
3.2214485677319527
0.29561697277791854
-2.789093042088535
1.8544927909060318
3.669279334720978
-0.530127370938736
-2.0108148254473717
7.956944336834638
2.0419502193791246
0.5896584859714642
-0.1642688774533932
-0.7066367863934704
-3.6531543535952213
-3.6465932785947635
2.018673634409649
1.3061503274454012
2.1478339934120942
0.9034780532235167
5.048810548689144
4.162575125057242
2.2457404799993124
1.0669563944098055
2.739347318541346
2.579481465546929
-0.14829090706057713
-4.467982509615574
-4.764575833479231
-2.9681830034750183
-6.232269099841676
-3.5101446251180635
-2.011737514806968
-4.1446507963747825
-2.110653051300213
-2.7120671439732256
-2.0880222703405464
0.6045126315702924
-0.6645852085549613
3.79949403254809
3.5029835953237747
4.591662453038162
1.993228306559116
2.457411756924758
3.162254908183047
1.0929912797812928
6.466466611747549
5.8233828114305926
4.087003730915129
3.0347561859243983
1.840099528352038
1.308377116849372
0.5795049975021516
0.4419996078919387
0.3995266319847924
0.4204236228713594
0.11098027818547747
0.27549277465281957
0.43691767369088463
0.21488098525792854
0.42631904537686194
0.23669846796078461
0.4668677498364281
0.6545369308059814
0.43177762442578643
0.2568396199420031
0.12599160230902084
0.033374760150317054
-0.027747322178978275
0.3045564284779543
0.20091469815331248
0.4882068135274492
0.34155663301342165
0.5905221836728812
0.41154642380632955
0.6345433365150297
0.43567550764518376
0.27551081319990983
0.1525058643836431
0.06273376172510989
0.3697611643756758
0.24498127024627275
0.5154272523790265
0.7246653589383698
0.5099507390707894
0.7025664797453924
0.47911380440324997
0.6686632472705617
0.4459685659688392
0.2699438153430501
0.5060548116236545
0.32567517168047244
0.18592242884270127
0.0829220926273112
0.37999426113396767
0.6168027067119082
0.4280638741313218
0.27489853818506826
0.5250473176294593
0.3520208683165888
0.5835032803774335
0.7627341529356899
0.8947370779827308
0.9864360265054599
1.0454045589457106
0.7103382825145383
0.44236624061620256
0.606729783913567
0.7417421266439159
0.47881092546130527
0.2747748101855978
0.12413171117463544
0.3878520296519502
0.23429436522793667
0.11873538832530867
1.142406137937933
-0.2758586260019398
-1.018989668844385
-1.5660849087387185
-0.10251902402536306
1.805334195541645
2.1575622029719965
0.15529169611628602
-0.7015563007088528
0.4977670828352381
-0.7583858061553161
-0.25477521435786077
0.9002321161451288
1.0588690897151702
0.048282461444008495
-0.752461533011003
0.4863257645562732
-0.37531765277906093
-0.31100192443743585
-0.24568778692985585
0.9211259751163576
1.0855563839646458
1.5512519403423857
0.7748484541935783
0.1436732563141372
0.02301914144620298
0.6823921303373113
0.0972953382671573
0.00941612195442761
-0.41549768138299226
-1.8362522370938514
-0.6929974598597639
0.6114140377152621
1.6246926013567102
1.6362920705302546
1.2243719386811767
0.4983520414727507
-0.07904621366725462
-0.8854265531764898
0.36036721169624286
1.3565865858543733
-0.09602636931978492
-0.1377579359528382
-0.5218443434106682
-0.43362904823217213
0.39388916017616793
1.0439266933462161
0.7928967689788486
0.5714183230088556
0.386193756332259
0.9759464030177232
-0.4137996720630326
0.3467788202281943
0.5896132679297978
0.038152788025955564
-0.7611647545831324
-0.6268442681563585
-0.4922398339256528
0.0005351199745095014
0.7597297278791277
0.6001931030488052
0.08310066114233317
0.4079676539654717
0.29141443144572854
0.5633646656267548
0.7697435478669001
0.549642161610416
0.7357034708141924
0.5054799850308671
0.3199737020929171
0.5461237397493861
0.3562719232580591
0.20810819287560145
0.09803510942070962
-0.3479312305522987
0.056086393332678175
0.38614715258661764
0.2746065794689149
0.5510568400656563
0.39256828326263277
0.6300069611137318
0.440616855444005
0.28604296157001063
0.534417016110246
0.7282119756802751
0.5034660880464359
0.3215779026176002
0.549884632682647
0.7297818317878432
0.8648236529095071
0.5921315881213451
0.7416156727851437
0.8565170169381436
0.9404562875511031
0.9981793606899985
0.6660790987656557
0.7721824559076425
0.48858197170578227
0.6394069825201346
0.763275889006011
0.49159871321181525
0.28102508734446563
0.49444443971645224
0.669348047677839
0.8060391278038957
0.9077452909147609
0.9792839073823816
0.6574069303982268
0.7706534368216974
0.8603702981044365
0.5594178071400412
0.6936599789948662
0.43406293754930786
0.23568718569866198
0.0917232687922036
0.36223526747656165
0.21500067019007726
0.47365280647936814
0.6787644955870571
0.4650918764807352
0.6619297187662567
0.8130576069607351
-3.5009151957395943
-7.188913339465449
-6.949972928287561
-0.6657551064920755
3.9392322468088308
12.200360740281635
6.555306500375339
1.0976382309407464
1.5632935306087967
8.607775179419393
-1.4451437480285172
9.457575388151394
9.493030355217202
8.579956628676467
-4.078886932994456
-6.518065486108253
3.333030373835001
0.8710454591066314
2.9852796568060604
3.164270156899855
-8.533744054729544
-19.01975750448742
-17.902054333937237
-2.1103527611823694
-1.3874600981097178
-5.772679315078267
-7.430855982041201
-12.36868052157092
-8.349933206196077
2.3037841534537495
0.19191845768504834
-5.399629895605365
1.5779135821315133
2.1770107055699404
2.461709251408526
13.58589153379694
16.462088383521532
26.72094018428164
17.582246786192535
15.838111595157384
6.162048151646765
-2.495712354525894
-8.217634021928818
-5.573592521651284
-8.225853451706849
1.4675028011517917
12.167956566014041
11.86036461065493
3.537584030657708
-2.7414683391724908
-6.045869259283232
-13.159625825115867
-7.66114966804029
-0.8128632012508419
-10.876765656270491
10.82467168356072
5.964736435422905
3.2617661767297506
9.089456881735302
3.153331293121785
2.7849080273376607
2.489952302810615
1.8961271371003483
1.450035160198
1.132653521545307
0.9217461223645237
0.7948150710571701
0.3622984894749569
0.4291446121325481
0.14801665594950586
0.3274623106784109
0.49418546468361646
0.6396296992819314
0.7600839519492595
0.4865046745444768
0.2751349739776209
0.4885197539200856
0.6638722832372067
0.8012818518153423
0.53513330829619
0.6932772203585948
0.8174863762164037
0.9104029853843082
0.9761814681479369
0.650914544870134
0.39385049704322506
0.20026894839886675
0.06214584269010889
0.3386953074202672
0.19714261869387184
0.09211444894453646
0.3871760373471286
0.6221445462972144
0.8005059880888403
0.9289588588814962
0.6470112204388954
0.4176053707149583
0.6082836610848255
0.391099111941152
0.2229126496084612
0.46770893789839646
0.6645455117613677
0.4467784718861095
0.6424865463826338
0.7944460588479578
0.5380262340565385
0.7020821614980591
0.09195147729631858
0.35737890826272645
0.5760065057117068
0.37903132686793706
0.5932484548123239
0.3921189226822256
0.23398718340398433
-0.2531213512657366
0.11738949812294375
0.4214261175639204
1.028025626708234
2.2255812606667407
1.64785628563549
1.1521997507324186
0.7477366623544845
0.8016682526614712
0.8514745041050911
0.8947190042882851
1.2990712670652376
1.6100368640018121
1.8373383284012932
1.256388605991779
0.7898004070920154
-0.30488948854682285
-0.7619813736642225
-2.1755204444280123
1.5800502300184411
4.171861182095947
2.056723531583129
6.955978086418572
8.475966719033122
0.260036360073606
-4.375306972509217
-3.7724802532664627
1.700757644705038
0.1548913051533951
4.089900048079217
3.0676195791395897
4.759305436542243
3.0558345546968733
8.294505871179789
11.556075556177246
6.883747616495109
6.7561349006028335
0.7165117331876383
-3.2104957483679515
-1.2772989294973849
7.0782722971470795
-1.1291276837306015
-2.0413016563481
4.391151528560199
11.666004389669062
6.467361852822407
3.6695353138762417
-0.3906767443004626
5.369381197770543
2.187486439864735
2.6365746661136225
-1.7645002297390797
-0.3249358605084347
-2.0219705766925458
-2.881810399398482
-4.540088719849489
-0.5413721363030977
-0.6564472514211372
4.036528934747679
4.68251843931636
4.667424507264741
4.894096154957747
0.9106072616933698
0.3480408310963392
-0.7721413196395397
5.428151995668346
5.100318238101778
7.307274998153712
7.808449338667275
4.373749137339151
2.72555157498995
1.837148755982687
0.841085720887052
-0.22325749731502026
-0.21953565826683585
-0.12028749687527451
0.031381953891839176
-0.16459153987570915
0.09345165760387442
0.3283878934857604
0.16138318099468185
0.04312807480815978
0.33373154159523566
0.2014457343303318
0.10192596876925006
0.39968551147994913
0.6353633325540378
0.4444359820135373
0.2885881547101581
0.5359557286462681
0.7289930244181533
0.5037067548155731
0.6901445854066344
0.46377869547047407
0.6527074409696412
0.7995749663284814
0.17084669281692022
0.04957828260054338
-0.03091938245460942
-0.07928195479041496
-0.10351454209701044
0.2580981561385617
0.5453372088342756
0.39411421915289935
-0.10135566118843581
0.2518179748439681
0.16554203644530546
0.4666079581272472
0.6990558016999654
0.8697149096777442
0.6191198903970201
0.41172349169624234
0.6167639964541112
0.7766589917955758
0.5266622220484586
0.6956760426480136
0.4578706329697272
0.27136059059767853
0.500739508197734
0.3165321434532305
0.17508936707993383
0.07188283317631292
0.3697019533996325
0.6077997377452886
0.789276504382381
0.9205883639254705
0.6411107240694562
0.04504675494246768
-0.04560476625097274
0.26947551249061485
1.2638065976354689
0.5547459746950865
0.7209461253520089
1.5854154328789396
-0.705927377185223
-4.337101577726819
-7.079458660940048
-7.936739770986247
-6.191406462470411
-2.833637660106388
-2.3829815048322436
1.6188166851537424
-0.8780690501373605
-1.0973753740389018
-0.5701721530131936
6.075628550940022
4.134172859206915
1.3150541429789282
1.245659356790944
-1.0297871822086155
-5.362566063974532
-4.569738590512513
-7.8411304325405915
-7.656044966075915
-2.535239496092487
-0.3087561227553959
1.3597514109858029
1.0686843044611716
-0.754183339245837
-0.7675919550290178
-1.5318956154716734
-2.4997458888496524
-2.4925935280652216
-3.5549978680144485
-2.8657761483534134
-3.019787889756677
-2.378072784407453
-1.4947678301946712
-1.5557307240227682
-2.735575828580112
-1.816917169916471
0.013467115694787202
-2.2805533523817907
-0.4169218635133176
2.1371655030625387
1.10702805613177
1.3158773298998045
2.1600012046815986
2.3909642081550286
2.505710159242401
1.4319106567794384
0.192091944283163
1.0786356172989073
5.846534462214824
6.186233438468247
5.569065005151561
7.924802713460416
7.812921360826753
3.5426938279732907
3.486255342709112
3.491444664465839
-0.1517347411324832
-1.8103403772515705
4.4217602138680565
1.9818522057047354
-0.6917020752474645
-1.6158115824514998
-1.1236815062127525
-0.6442553915923583
-0.21094238500607854
0.15882978996590824
0.09042113647244253
0.04004938134942644
0.37375315679016397
0.2654972378038287
0.17605864182527378
0.10560604607491503
0.05273740135719758
0.015170437526143851
0.3589348160359694
-0.11047860009213512
-0.4775028731344907
-0.38203918126369474
0.07726966466165514
0.07186711952634715
0.43143248740069645
0.3349204205471009
0.6160661317494226
0.8240628364287597
0.9693531396899628
0.6948256654545157
0.8349914471483091
0.9365908231641291
1.0057700944329764
0.6802991638018412
0.7894578498306583
0.5064136158651933
0.6561729772957126
0.7780369783699388
0.8726075210255511
0.5737469140274443
0.33948490930509634
0.5333045234088896
0.6927469101130418
0.8178179467501622
0.9112523280510594
0.9772902027256778
0.6520989423322903
0.7636748437275063
0.8528915150246466
0.920903764665253
0.9701254417240555
1.003573451903313
0.6557194210143509
0.3840140498101536
0.5506570791688317
0.32287747479974926
0.1534227762211565
0.4029397449996327
0.23921651293684257
