-2.8572108519752497
-3.157397507989381
-1.5919129051975127
-2.3371101136908394
0.8311394453654342
1.4362257628599626
1.2532337500973638
0.6392451336397147
0.5946445869615284
2.1125160654936446
1.2548651353083844
2.067056286957169
1.9006671587487938
2.4678700637270685
1.758898571893597
1.541842755705321
0.25532041646567394
0.37056175203989605
0.4933563711159745
2.086442753222383
1.84836893181269
1.9994551174793327
1.726121532791375
1.127162352968035
1.0282152227529693
0.22610799948665106
-0.377678192880345
-0.0709191704385006
0.5765164505834591
1.0983525210162588
1.4994348817304268
2.529789066103428
2.5597087355488144
1.4280661602466056
1.995467932352295
0.5900596419346265
2.077817126322453
1.7744960366279638
2.99621284415879
2.820651828105304
1.5385537617477867
2.3708777476939042
2.2884050185893443
1.8447372712881094
1.1288386379851771
0.5871898566919794
-0.17010205272358814
1.129300876044631
2.1777238843889126
0.7722793790674891
1.5081622800664847
1.3538970097576488
0.8597019644126275
0.8480883087151453
0.8528266303860835
1.9735705614804084
1.3673768788840386
-1.336084512262398
2.485591283119542
1.8084639646229412
4.18678255415826
4.516482688188641
4.314903352300743
3.345794998494063
7.709205917014607
7.356316052454561
4.734192423230312
4.097943273368407
2.5029742351552144
0.9284876743362391
0.1499505345560196
0.7525938724029554
0.9429328065436375
-0.3276592292651732
-0.8939913718077305
0.5834838832442282
2.156380708427486
1.9005673733891095
2.0362003884465567
1.7502647707421677
1.510137218144052
1.3180083203974835
0.8027609928099118
2.6258124458871683
2.2013953036944134
2.9440566420556666
3.1281228848121367
3.6028326803041315
2.459335357393747
1.5420227075079898
2.3151340061838646
0.3562772002491217
0.6963816328135919
-0.0913853158673012
0.07646497687758247
1.361869742764829
2.3829767009924994
1.312665074429349
0.8218955712480744
-0.6592967315075572
-0.6743160434067053
-0.26153370080354577
-0.6380756473549063
-0.9045485317918975
-0.3429880602740937
1.5929853753932415
1.61115200107694
0.46800273812677595
2.131025175977924
1.934124006173654
2.472969116981537
2.117652217795074
1.8045324486137129
2.2803038940358435
2.637848566577004
1.048914810192025
0.9096057146522772
-0.6459048819304395
0.028466173108145476
-0.12651799346475975
-0.2143091037540092
-0.25270485149992616
0.48050669182993627
0.6954386276461335
0.1179545287603162
-0.7041327487679713
-1.3260911782147904
-1.4036013691492868
-1.4204663668447097
-1.0290189210790497
-0.7001318233986149
-1.174244316163095
-0.4331097932451976
-0.5887258845560505
-0.35096005646953865
1.3017755458952527
0.7161268532831995
-0.1586427771516583
0.6175428135922444
0.11134403753310407
0.8095305551798921
0.6075217491799556
0.4317200263345558
-0.08225472415315199
-0.47965371374840604
-0.4031951013275666
-0.6915760512856227
-1.2668270904951233
-1.688245397403377
-1.2416905156864089
-1.5984880405125044
-0.7495825776681171
-0.4433296832098478
-0.21476316003067214
-0.05340191897073487
-0.3159755808959649
0.2012813109687367
-0.5147637924785948
0.3899224535639412
0.7203061138281006
0.951104996789498
0.36332388333616594
-0.11607363583315561
-0.48895645504320095
-0.02759500765098344
0.34531662046018824
-0.8419862777959363
0.08041904253611132
0.07789438014306056
0.4387976973390614
1.0799176692332932
0.8203982940938325
-0.1459973767744851
0.20265240605944224
0.11742695977950593
-0.6830797993211273
-1.2930869189990188
1.5838158644878408
-0.22516086259315937
-0.561064603127077
-2.282746118072529
1.5760406858525324
-1.6656486458488478
-2.7407238979247692
-2.413430879069497
-1.3571292240271586
-0.871671497737535
-1.6019953665980289
-2.1741376494325206
-1.863585441128283
-1.230226886104728
1.4794867741881774
1.3372269472230416
0.03510779707042655
1.5527108899463435
1.599185637812634
-0.6312003954683503
-0.542966310170542
-1.1814939747929358
-2.7556987135715847
-1.715719541425612
-1.5807608270666562
-0.34335617581366473
-0.8507188523126508
-0.5249677124342826
-1.014977686980783
-1.4025928988985763
-2.432139406380743
-2.100622125429575
-2.5412530894561
-1.0124478661001532
-2.020055094552405
-0.6013706424705809
-2.0798471570229413
-1.4018196890964045
-0.8623897150050832
1.0214263714414997
0.9726234600023298
-0.6102116847250665
1.4393628993876122
1.91013988908134
1.8458014265665421
2.475352884922488
3.2831696101671604
2.006679880375289
2.0679767698076157
2.8386458027766595
0.8366513991546198
1.1113542216770917
0.6180128769175588
0.2574553526350478
0.7467468415010236
1.5239071018542336
1.7631360747899671
1.56429839964375
1.3939329773272866
1.6237651950225638
1.430068967862139
0.536242067907842
0.5872669671010131
1.0209597816245837
1.7412321782102556
0.08384799995981651
1.3732947443736072
1.2899868162658314
1.2143524033612032
1.1495719371743798
1.0967908646535842
0.6870926185070577
0.005165092126724891
-0.5052107512779999
-0.12935904604589277
-0.9084040696740279
-0.38090003832584807
-0.3068460385367468
0.13297208510125363
0.47952521868213566
0.3709771298098762
-0.09571313725642416
0.6438674238818903
0.48115405098768654
1.0775732287966644
1.1587061963610767
0.45994393273729595
0.6401780989922717
0.41386585048376656
0.9754805870461108
1.4114391190502789
0.9960573934743583
0.6546792232728835
0.7558310896913351
0.10171757462749142
0.33860207368641915
0.9093883337973321
1.356388351024678
0.5836650503178771
1.076062595965582
1.4603315974032562
1.0084327982542403
0.6430176079047254
1.467293728128098
1.0033932416956044
1.7368605072589025
1.5628989381493001
0.6709767596111698
0.7124987566326999
1.4989282240956574
1.3773073888003018
1.2705474341540572
1.1816519963498828
1.1110978824076168
0.68904250381732
-0.0008411783350269486
0.22160995537745853
0.05520729470953206
-0.054231496077300906
0.618359849573501
0.4153819771910812
1.3602938499189152
0.2436814928080986
1.941280544302747
3.624715716377838
5.613592811974886
5.952751911015876
8.671970578718852
8.072276002944976
4.500081819459225
3.8611034922550624
-0.6662606589197715
-0.4202889444468201
-0.07269895990694875
-0.05726010687601579
1.8799229652499676
2.6928823823015517
4.047344746590974
-0.4727102078693477
-0.685644238272733
-1.1342806641376655
1.5426486233543364
-0.3893031600946608
-1.895859638608604
-2.6454681145874877
-0.5660716222569553
-1.102639465876222
2.1741807779011415
3.9684016852318846
1.9443625022927096
3.9605661322637085
0.6820003586554253
-0.8126643249726856
-0.8240030748115496
-1.8717488772938635
-0.7794192017925952
1.2370818197304514
1.7030513100951794
2.0208183714261585
2.2197749452572397
1.5905441069232162
1.0669249679274084
0.2828979447594342
0.7920568216739873
0.4721006541885925
1.3386559285169113
1.2803540893919805
0.8525854452644174
2.726904576208706
0.11470338844879224
1.7460578022924673
1.9284381433193776
3.1553221850516655
0.38957735572279395
-2.52207808269152
-0.6604913219317714
-1.3270632944672736
-1.4326613871165803
0.37848175279954654
-2.6146055697920163
-0.13915875386489862
4.41276193919907
6.783238932677952
6.981141715321835
4.367864319097461
2.580792490668287
1.1680767718480365
1.2100037481210104
0.5618695969800398
0.8454227077145836
0.37879832677755454
0.054114440503707666
0.9508962411883963
-0.5322587888519942
-2.033356184397431
-0.9251619996925056
-0.3618106204349575
-1.0040150305245354
-0.3825248505877653
-0.2490070066641187
-0.5136167353814135
0.018058387387459462
0.06304631202415951
0.0864384450594784
0.46302451972637415
-0.3626248720625448
-0.6452804187709913
-0.48322278595715473
-0.7112052808060887
-1.2467663017869497
-0.9073491134074569
-1.7270356022877793
-0.8709134737199362
0.18690835532137995
-0.10727343241675269
0.0047600455772360255
0.07511010572559987
0.48224145968773924
0.7804077011325611
1.354778187878297
1.3999661245085884
2.134087056774788
1.191603843110701
-0.6835920348731599
-1.3935623576825709
-1.1525884352552151
-1.2775653779142786
-0.5970384306671331
-1.1465782130668682
-1.5613190559092922
-1.1206335640536045
-1.4907551258054783
-1.027507544880625
-0.6534121241856379
0.3720490469621477
1.5174722870539288
0.8836431418427055
1.8085779261294794
1.012421523620804
-0.01878667815950763
-0.4585340705062002
0.3268839256387568
0.21829435776592632
-0.236290647393412
0.5221017530946143
0.7496257632087848
-0.1929005278506959
0.9119176010446941
1.0379409703354288
0.7458003531257241
-0.6039486457248361
-0.5403836937419895
6.547721541993624
-8.265807394449801
-2.124476730321982
-0.8119695034536336
-0.8659988152549081
4.25085268472982
-3.621604339928851
-1.702390353231607
-7.490860413061766
-7.107830258881929
-4.406966900712004
-2.5614939481121297
-1.1134421694207883
-0.4000294351058026
0.08214224548682414
0.7487034945633448
1.189479577688608
1.0840061260838942
0.9312893097176735
0.7608812625834854
0.5928443132700123
0.4396556887183096
0.6766989447892485
0.8520355693913684
0.6057982469322061
0.7708976853310457
0.5246443179036789
0.6961817327970752
0.8286156118645229
0.5571540365346588
0.34150780744487574
0.5469190860680433
0.7125977010083362
0.47134221563399825
0.281583705171419
0.13941325137328867
0.03858197950722784
-0.3968260146584536
-0.3509441036972405
0.07459241688228235
0.048081661094888636
0.3962110057656105
0.295277752370362
0.2080958372845932
0.1365223916766686
0.08048967303688534
0.03872012220845515
0.37796020378723305
0.6415514475996864
0.8364408341232235
0.9724728107863669
1.0605388425778028
1.1113260069296367
0.7658569153689015
0.8555924754704819
0.555031412429446
0.6898692201974816
0.799635696372221
0.5161664852949666
0.2961963473421537
-44.10856282888578
-33.929514767491746
-25.176150293260676
-17.36042287252075
-11.046870210140302
-6.183305988779577
-2.621575073407616
17.900920549274478
22.636136251333333
21.729225090614865
19.1186722351951
15.401643397831572
12.886484253134924
10.014089878112166
7.722856896811411
6.349255855108805
3.531445775412502
1.4719317216229795
1.160838421227971
-0.3641731528007945
-1.3774536517552745
-1.6184745601096835
-1.6420380597860587
-0.7890728943422847
-0.02897779982993609
0.24340730926157683
0.1067967376534115
0.38075333777690956
0.2342220066614449
0.12310459958408457
0.4118596387340839
1.0095717837006544
1.8342966687438322
3.184950626492312
0.49498930688914466
0.20360552571013754
0.3721597098297055
0.159769197174257
-1.0930692138726905
-0.1920875033111349
0.9195737584623291
-0.056749896967146274
1.0159136096767836
2.2194331623765082
1.6459617897196206
2.2592000063830566
1.59914728474503
2.1614451669651618
1.1083139603610537
1.0133137499871419
0.5835946784429977
1.0033100518307447
0.9787880843032699
2.0710512945050246
1.807818274919422
1.5774502556005068
1.3861343106563664
0.8659872435779328
0.10011774459470768
-0.10211001520883754
-0.590352284545132
-0.9311349861319921
-1.8891200428405623
-2.2134881026842352
-1.2952444888689818
-1.6392343417996864
-0.7790057124317513
2.854910074146037
4.162565450550142
3.9485859261564484
5.8707900650049725
4.303990495639718
2.9728737942423646
-0.6844928894482316
-0.1770622351148574
-1.5271667204977828
0.45295977701106205
0.5895818575306631
0.7084431272573178
0.06927502382838391
0.3181724972296369
0.8981659499060656
2.089242848994489
1.1495742738960197
0.01686736346488682
0.24758212141671987
-0.2843535137740699
-0.3083473570315858
1.9131225506022052
2.534231974588094
0.382550564423068
1.9941245266610061
1.7756207044082795
1.576049106743533
1.404286693681302
0.8950417372098134
0.1337463580128646
-1.9116971112397951
-2.3423366375253822
-1.8496322535492795
-1.0229319342774224
-0.3402921205257161
2.0405924462684752
0.9087829336074056
-0.4055483007654217
0.4019849997043593
1.7761351071136389
0.976921213196799
1.052662327703451
-0.009764433154356489
-0.46993739464327655
-0.8025671527755349
-0.6595616677119829
0.22049787208466332
1.286168605504764
2.0951140569156443
1.571651486461272
1.484992711916829
1.0230623322762797
-0.08722090330848475
-0.20276570128170834
0.8464589498605573
0.2052138504254657
0.07331274520562145
0.35290297509914303
-0.156545199511469
-0.9138700200354182
-0.37221942819280973
-1.027296808475027
-0.41208365158452154
-0.6488662651906209
-0.08887721759979539
-0.017517728535242593
0.02892437087490404
0.4246320006297411
-0.017208915158109184
-0.005550768223623138
0.0022502174726985705
-0.3616899936982119
1.2012639223870463
2.4103524406380643
1.0878547152652145
0.7449700704742965
0.46931050798266716
-0.11069262704601207
-0.1788304115770031
-0.20763771373798262
0.15936003715421804
-0.27952856803049314
-0.6138502015452925
-0.48690737357440683
0.0006070112617697632
0.3877885488423419
0.31217868872281856
0.6083271996695581
0.4577239875296028
0.3262775398602844
0.21736913092186835
0.5000289287682247
0.3495149735355786
0.22672264947953524
0.4998741551705317
1.4494286487201018
0.32866501386589375
0.17345947567394326
-0.3069924638417828
0.0720011281768308
0.016313074927535316
-0.7575122937318342
-0.9760747443656465
-0.378584625815228
-0.26053142126757844
0.20338406401765408
0.19086930205812264
0.9051755703065052
1.0744301738828517
1.5440553463666542
1.5080770655448998
1.8136803809506048
0.5466708612661646
0.2818165811753409
0.09221863513651393
-0.4034906915351152
-0.02646200620086614
-0.07556711880077441
-0.8379362227976767
-0.6741897840943012
1.326184951210392
1.7748939841857814
1.3386834267025602
-0.1491265749863977
0.15982685936346525
-1.7904881654073637
-0.3272710437098918
-0.24521171862092833
-1.6486683378199225
-0.8780839509324312
3.0757967714763566
2.8039235989517106
2.1202688440105697
0.04545657240968204
-1.954519924086782
-1.615680452057744
6.837706204128413
4.162011764505119
2.2724360151581946
1.1087397437027755
2.049963327600926
1.3243661819212236
2.235804061197938
1.4766367694246891
1.248723790828923
4.403253390182419
2.4152066266934766
3.021431822924332
2.0071573275219174
0.838666451067053
0.6922630102700794
0.9929741196829177
0.5254580839086674
0.5572446845158536
1.3498638142031973
0.13793568141429624
0.30901748173047916
1.20929853591327
0.07650750187774191
-1.5410010148223163
-2.388850415263273
-1.8666095448003146
-1.3885997904746055
-0.6078078430363506
-0.35582069207615685
0.5689066518286008
0.5290350085317301
-1.0129162718471532
-1.4863381706822274
-0.3512838816028232
0.1834270191902495
-0.520180511848068
1.1301607086039889
1.662694976464092
0.18226037315507027
0.4695395640669382
1.0617370127873822
1.510149304236037
2.2008456315033205
1.2256435499045073
1.1705186125129525
1.49085517314128
1.3648559779138627
1.6250075234078536
0.7129810164759338
0.36978712769794714
0.49242887940461116
0.9788697790545104
0.6297281703769202
1.0966476526463196
1.0945101236622865
1.4543376353946278
0.9874848404360433
0.982979701572502
0.9814878977422347
0.6133306964796579
0.7008619510437166
0.7798897213489735
0.47858366521854423
1.3563979012837688
1.303794306155359
1.246446882061433
1.1906611677459467
0.7716075614251274
0.8144312893939638
1.593583482348035
1.4598475464527616
1.3388809136372943
1.2355871512641012
0.41428516865390297
-0.2165864188448404
0.4289482406626488
0.9613114361155333
0.6425563049954366
1.1276399245096442
1.1345071656412282
1.1281552483486665
1.1139625882833066
0.7272613523803826
0.05666053700039697
1.0240889732097702
0.685777452254139
0.04902184115052666
-0.06763471303122129
-0.5045939508062964
-0.4511286326527609
-0.01284441611428111
-0.02436006103394346
0.3389917780344774
0.6209013510495752
1.197682397400441
1.6255605278276524
1.5567507522001245
1.837759714724222
1.6593690797230738
1.8630445781400653
1.2651369629078832
1.1558341996554475
0.337075443288271
0.8200030140080874
0.48126619149774175
0.966550441919674
