121,121,118,123,122,121,121,121,121,121,123,121,121,122,122,121,120,122,122,122,122,121,121,120,121,121,119,121,121,121,121,120,120,122,121,121,121,121,121,121,121,122,120,121,121,121,121,121,121,122,120,121,121,121,122,121,120,122,122,122,121,120,120,120,120,121,121,121,121,121,122,120,121,122,121,121,121,121,121,121,121,123,121,121,121,121,122,121,120,122,122,121,120,120,121,120,119,122,122,122,121,120,121,120,123,122,122,122,122,121,121,121,120,121,121,122,121,121,122,120,121,120,122,122,121,120,120,120
120,122,120,122,122,121,121,120,120,121,120,122,121,122,121,120,120,121,122,123,122,122,121,120,120,122,121,122,121,120,121,121,121,122,120,122,122,121,121,120,119,123,122,122,121,122,121,119,120,119,121,122,121,121,122,120,121,121,121,122,122,121,121,121,121,123,121,121,121,121,121,121,120,122,122,121,121,120,121,120,121,122,122,122,120,121,121,120,119,121,121,122,121,121,121,119,125,121,119,121,121,121,122,121,120,122,124,121,121,121,122,120,120,121,119,122,122,121,120,120,121,122,120,121,121,121,122,121
120,121,120,122,121,121,122,121,120,120,121,122,122,121,121,120,120,123,122,122,121,121,121,120,121,123,122,122,122,121,122,121,121,121,121,121,120,120,121,121,121,121,120,121,121,121,121,121,120,123,122,122,121,120,121,120,121,121,120,122,121,120,121,120,121,121,120,121,121,121,121,121,120,122,121,121,121,121,122,121,121,122,121,122,121,121,121,120,120,120,120,122,121,122,121,120,120,121,121,121,121,121,121,121,120,122,121,121,121,121,122,121,122,121,121,122,120,121,121,120,120,122,121,122,121,120,121,120
121,122,121,121,122,122,122,122,120,123,122,122,120,121,121,120,122,123,120,121,121,121,121,120,120,119,120,121,120,121,121,121,120,122,121,121,121,121,121,121,123,121,117,121,122,121,122,121,121,123,126,121,121,121,121,121,120,122,120,122,121,121,121,119,120,121,119,121,121,122,121,119,123,122,122,122,121,121,121,121,120,122,121,121,120,121,121,121,120,121,121,121,121,120,122,120,122,122,121,121,120,120,121,121,120,122,122,122,121,121,122,121,120,121,120,122,121,121,122,120,121,120,120,122,121,120,121,120
120,122,121,121,121,121,122,121,122,121,121,122,122,122,122,121,120,121,121,121,121,121,121,120,121,122,122,122,121,120,121,120,121,122,121,122,120,121,121,121,120,122,122,122,121,120,121,121,120,122,120,122,121,121,121,119,121,122,121,122,121,121,121,119,121,121,120,122,121,121,122,121,121,123,122,122,122,121,121,120,121,122,121,122,122,122,121,120,120,122,121,122,121,121,120,120,120,122,123,122,121,121,121,120,120,121,121,122,122,121,121,120,124,122,120,121,121,121,122,121,120,119,120,122,121,121,122,121
120,122,122,122,120,121,121,120,120,122,120,121,121,121,121,120,123,121,120,121,121,121,122,121,120,122,121,122,122,122,122,121,121,123,122,122,120,121,121,121,121,122,121,121,120,121,121,120,120,119,119,121,121,121,121,120,121,122,122,122,121,121,121,121,121,121,120,121,121,121,121,121,121,123,121,122,121,121,122,121,120,122,124,122,121,121,121,120,121,121,118,121,121,121,122,120,120,121,121,122,121,120,121,120,119,120,121,122,121,121,121,121,123,121,120,121,121,121,121,121,122,123,122,121,121,121,121,121
120,122,119,122,121,120,121,120,120,122,122,121,121,121,121,121,119,121,121,122,121,122,121,120,122,122,121,122,121,121,121,120,120,120,121,122,121,121,121,121,120,121,122,122,121,121,121,120,120,121,121,122,122,120,120,120,121,123,121,122,121,120,121,120,121,122,121,122,120,120,121,120,121,121,122,122,121,120,120,120,119,121,121,122,121,121,122,120,121,121,120,122,122,121,120,120,120,123,122,121,121,121,122,121,121,123,122,122,120,121,121,120,120,119,119,121,121,121,121,120,121,122,121,121,121,121,121,121
120,122,122,122,121,120,121,120,120,122,122,122,121,121,122,120,124,122,121,121,121,122,121,121,119,121,120,122,122,121,122,120,120,122,122,122,120,121,121,120,122,122,121,122,120,121,121,120,122,120,119,121,121,121,121,120,119,122,125,122,121,120,121,121,120,122,120,122,120,121,121,120,121,121,119,121,121,121,122,121,122,121,121,122,122,121,121,120,120,121,121,122,122,122,120,120,121,122,121,121,120,121,121,121,121,122,121,121,121,120,122,120,120,122,121,122,121,120,121,120,120,122,121,122,122,122,121,120
122,121,121,122,121,120,121,120,121,122,122,122,120,120,121,120,119,122,121,122,120,120,121,120,120,121,121,122,121,120,121,120,122,121,120,121,122,121,122,120,120,121,123,122,121,120,121,120,121,121,120,122,121,120,121,120,121,122,122,122,120,120,121,120,119,123,121,122,121,121,121,120,121,121,120,122,121,121,122,120,119,121,121,122,121,121,120,120,123,123,122,122,122,121,121,121,121,122,121,121,121,121,122,121,121,122,121,121,121,121,121,121,120,121,122,122,121,121,121,120,121,122,121,122,122,122,121,121
121,121,119,120,121,121,122,121,120,122,121,121,121,121,121,120,121,121,119,122,121,121,121,121,122,123,122,121,121,121,122,121,121,121,123,122,122,121,121,120,121,121,119,121,121,121,122,121,119,121,120,121,120,121,121,121,121,121,120,120,120,121,122,120,120,122,121,123,122,121,121,121,119,120,121,122,121,122,121,119,121,123,121,122,121,121,121,120,121,121,121,122,121,121,121,121,120,122,121,122,121,121,121,119,119,119,120,122,121,120,121,120,121,123,121,122,121,120,121,120,119,122,121,122,121,121,122,121
120,122,121,122,121,121,122,121,120,121,121,122,121,121,121,120,119,121,121,122,122,121,121,119,119,121,122,122,122,121,121,120,121,121,121,122,121,122,122,121,122,123,122,122,121,121,122,121,121,120,120,122,120,120,120,120,121,121,121,121,121,121,121,120,121,122,122,121,120,120,122,121,120,121,120,122,121,122,122,120,121,122,121,122,121,122,122,120,120,120,117,121,122,121,121,120,121,123,125,122,121,121,122,121,120,121,121,122,121,121,121,120,120,121,120,122,122,121,121,121,120,122,122,122,121,121,121,121
120,122,121,122,120,121,121,120,121,121,122,122,121,121,121,121,121,122,120,123,121,121,121,120,120,121,121,122,122,121,121,120,122,122,121,121,121,121,121,121,120,122,121,121,121,121,121,120,120,122,122,122,121,120,121,120,122,122,121,122,121,121,122,121,121,119,120,122,122,120,121,120,119,122,121,122,121,121,120,120,120,121,122,122,122,121,120,120,121,123,122,122,121,122,122,121,121,122,121,121,121,121,121,120,120,121,120,121,121,120,121,121,120,121,121,122,121,122,120,120,121,123,121,122,120,121,121,120
120,120,120,121,121,121,122,120,121,123,121,121,121,121,121,120,120,122,121,122,122,121,121,120,121,119,118,122,121,121,120,120,121,123,125,121,121,121,121,120,119,121,120,122,121,121,121,119,121,121,119,122,121,120,121,120,118,120,121,122,121,121,121,120,122,122,122,122,121,120,121,120,120,121,120,122,121,121,121,120,121,122,122,121,121,121,122,120,120,121,122,122,121,120,121,120,121,121,121,123,121,121,122,121,121,122,121,122,121,121,120,120,121,122,121,122,121,121,122,120,119,120,120,121,121,120,121,121
122,121,121,122,121,121,121,120,120,122,121,122,121,121,120,120,121,122,121,122,121,120,121,120,121,122,121,121,121,121,121,121,120,122,121,121,121,121,121,121,120,121,121,122,120,120,121,121,120,122,122,121,120,121,121,120,120,120,120,122,121,121,122,120,121,122,121,121,121,121,121,121,122,121,120,121,120,121,122,121,119,121,125,121,121,121,122,120,120,122,119,122,121,120,121,120,121,122,120,121,121,121,122,121,120,121,121,122,122,122,121,120,121,122,121,122,121,121,121,120,120,121,120,121,122,121,120,119
120,121,122,122,122,121,121,120,122,121,121,122,121,121,122,121,121,119,119,122,121,121,121,120,120,122,120,122,122,121,121,120,121,121,121,121,121,121,122,121,120,121,121,121,120,120,121,120,121,123,121,121,121,120,122,121,120,121,122,122,121,121,121,120,121,121,120,122,121,121,122,121,120,122,120,122,121,121,122,121,122,121,121,122,121,121,122,121,119,122,121,121,120,121,121,120,123,123,121,121,121,121,121,120,121,122,120,122,121,121,122,121,120,122,121,121,121,121,122,120,120,122,121,122,121,120,121,120
121,122,121,121,121,121,121,121,121,121,120,122,121,121,121,121,120,120,119,122,121,121,122,121,121,122,126,122,122,122,122,120,121,121,117,121,120,121,122,120,121,121,119,121,121,121,121,121,121,122,120,121,121,121,122,121,121,121,121,122,122,122,122,120,121,122,120,121,121,121,122,121,121,122,122,122,121,120,120,120,121,122,123,122,122,120,120,119,120,122,120,121,121,121,121,121,121,121,120,122,121,121,120,120,119,120,122,122,121,120,121,121,122,122,121,122,121,120,121,121,119,121,121,122,121,121,121,120
121,122,122,123,122,121,122,120,119,121,121,121,120,121,122,121,119,121,120,122,121,122,122,120,123,122,121,122,121,120,121,121,120,122,121,121,121,121,121,121,121,122,121,122,121,121,121,120,121,120,120,122,121,121,121,120,120,122,121,122,122,121,121,120,121,122,121,122,121,120,121,120,120,122,122,122,121,121,121,119,120,121,124,122,121,121,122,120,120,121,120,122,121,121,120,120,120,122,121,122,121,122,121,120,121,122,120,121,120,121,122,120,121,121,120,121,121,121,122,121,119,121,120,121,121,121,121,120
124,123,122,121,120,120,121,121,120,121,121,122,122,121,121,120,119,120,120,122,121,121,122,120,121,121,121,121,120,121,121,121,121,122,120,122,121,122,122,120,121,121,122,122,122,122,121,120,119,121,121,122,121,121,121,119,122,122,121,121,121,120,121,121,120,121,120,121,121,121,122,121,120,121,121,122,122,121,121,119,120,123,122,122,121,121,121,120,120,121,122,122,120,121,121,120,121,123,121,121,120,121,121,121,121,122,122,122,121,120,121,120,119,121,121,122,122,120,120,120,122,122,121,121,121,120,121,120
119,121,122,122,122,121,121,119,119,121,121,122,120,121,121,120,123,124,126,121,120,121,121,120,120,119,117,121,121,121,122,121,120,122,121,122,120,120,121,120,119,120,120,121,121,121,121,120,119,121,120,121,121,121,121,121,122,122,121,122,121,122,122,121,120,121,121,122,122,121,121,120,120,122,121,121,121,121,121,121,121,122,121,121,121,121,122,121,121,122,120,122,122,121,122,120,120,121,120,121,121,120,121,120,121,122,121,121,121,121,122,121,121,121,121,122,121,121,121,121,120,123,120,121,121,121,121,121
122,122,122,122,121,120,121,120,120,121,120,122,121,121,121,120,119,120,121,121,121,121,121,120,123,123,121,121,121,121,122,121,119,121,121,122,122,121,120,120,121,120,121,122,121,121,121,121,121,121,121,121,121,121,121,121,120,122,122,122,120,120,121,120,121,122,122,122,122,121,121,121,120,121,117,122,121,121,121,120,121,121,123,121,121,121,121,121,120,122,121,121,121,121,122,121,121,121,119,121,121,121,122,121,120,121,120,121,121,120,121,121,121,122,121,122,121,121,121,121,120,121,121,121,121,121,121,120
121,122,121,122,120,121,121,120,120,120,120,122,121,121,121,120,120,122,121,121,121,121,121,121,121,121,122,122,121,120,120,120,122,122,120,122,121,121,121,121,119,120,122,122,121,121,122,121,119,122,120,122,121,121,121,119,120,121,121,122,121,121,122,120,121,121,121,122,121,121,120,120,120,122,121,122,121,121,122,120,120,120,121,122,121,121,121,121,121,122,121,122,120,121,121,120,121,122,122,122,121,121,121,120,122,122,121,121,121,121,121,120,121,121,117,122,121,122,122,120,120,123,124,122,121,121,122,120
120,120,121,121,121,121,122,121,121,119,119,122,121,121,122,121,121,123,122,122,121,121,121,120,118,122,121,122,121,121,122,121,123,121,121,121,120,120,121,120,120,121,120,121,121,121,122,121,120,121,121,121,121,121,121,121,120,122,122,122,121,121,121,120,120,122,122,122,120,121,121,120,121,122,120,121,121,121,121,121,120,121,121,121,120,121,121,120,121,121,121,122,121,121,122,121,120,122,121,122,121,121,121,120,121,122,121,123,121,121,120,120,120,120,120,122,121,121,122,120,120,121,121,122,121,121,122,121
120,122,121,122,120,120,121,120,120,121,122,122,122,121,121,120,120,121,119,121,121,121,121,121,120,121,122,122,121,120,121,120,121,121,118,122,121,121,121,121,122,122,124,122,121,120,121,121,119,123,121,122,121,121,121,121,122,122,120,121,121,120,121,120,120,120,121,122,121,122,122,120,121,122,121,121,121,121,122,120,121,122,121,122,121,121,121,120,120,122,122,122,120,120,121,120,120,122,121,122,122,121,121,121,122,122,120,122,121,121,122,120,119,121,120,121,121,121,121,119,119,120,120,121,121,121,121,120
121,122,122,123,121,120,121,120,120,121,121,122,122,121,121,120,119,119,121,122,121,121,121,120,123,123,122,122,120,121,121,120,120,121,120,121,120,121,121,120,122,122,121,122,121,121,122,121,120,121,121,122,122,121,121,120,124,121,120,122,121,121,121,121,120,122,125,122,121,121,122,121,121,119,117,122,121,121,122,121,121,122,121,122,120,121,121,121,121,122,121,121,121,121,122,121,121,122,121,122,121,121,120,120,121,121,120,121,121,121,121,121,121,121,121,122,121,121,121,121,121,121,120,122,121,121,121,120
120,122,121,122,121,120,121,120,120,121,121,122,121,121,121,121,121,121,122,122,121,122,122,121,120,121,121,122,121,121,122,120,121,122,121,122,121,120,121,120,119,121,121,122,121,120,120,120,120,122,120,121,121,120,121,121,121,121,122,122,121,121,121,119,119,121,121,122,122,121,121,120,120,122,120,122,121,120,121,120,120,122,122,121,121,121,122,120,121,122,120,122,121,120,121,120,121,123,121,121,120,121,121,121,120,121,120,121,121,121,122,121,121,123,121,121,121,121,121,121,121,122,122,122,122,121,121,121
121,118,115,122,121,121,122,120,120,123,124,122,121,121,121,119,120,122,121,122,121,120,122,121,121,119,119,121,121,121,122,121,120,123,122,121,121,121,121,120,121,122,122,121,121,120,121,120,119,121,121,122,122,121,121,120,122,121,121,121,121,121,121,121,120,122,122,121,121,121,121,121,119,120,120,122,121,122,121,120,121,122,121,123,120,120,121,120,121,121,121,121,120,120,121,120,122,122,121,122,122,122,121,121,121,122,121,122,122,121,120,120,120,122,121,121,121,120,121,121,121,121,122,122,121,122,121,119
121,121,120,121,121,121,121,120,121,122,121,121,120,120,121,121,121,122,121,121,121,121,121,120,121,123,122,121,120,121,121,121,121,122,120,121,121,122,122,120,120,122,121,122,121,121,121,119,120,121,121,122,122,121,121,119,120,122,120,123,121,121,120,120,120,120,122,122,121,121,122,120,121,124,124,122,121,121,122,120,124,119,119,122,121,121,121,120,119,121,121,121,120,120,120,120,120,122,121,121,121,121,121,120,121,122,121,122,122,122,122,121,122,122,122,122,120,121,122,121,120,121,122,122,121,121,121,120
120,121,121,122,121,121,122,120,121,122,121,121,121,121,122,121,120,122,121,122,122,122,121,121,121,122,121,122,120,121,121,120,120,120,121,122,121,122,122,120,120,122,121,122,121,120,121,120,121,121,121,122,120,120,121,121,120,122,121,121,121,120,121,120,121,121,120,121,121,121,122,121,120,120,121,122,122,121,121,120,120,121,122,122,121,121,121,121,120,122,121,121,120,121,121,120,120,121,121,122,122,121,121,120,120,121,121,122,120,121,121,120,121,120,120,122,121,121,121,120,119,121,121,122,121,122,122,120
121,122,117,120,121,121,122,120,120,121,123,122,121,121,120,120,120,122,121,123,121,120,120,120,120,122,120,122,122,121,120,120,122,122,121,122,121,121,122,120,121,122,121,122,121,120,121,121,120,121,121,122,121,121,120,120,120,122,121,121,121,121,122,121,121,121,121,122,121,121,122,120,123,122,122,122,121,120,121,121,119,120,120,121,120,121,121,120,120,122,122,122,120,121,121,120,119,122,121,122,121,120,121,121,122,122,122,121,121,121,121,121,119,119,120,122,121,120,121,120,121,122,121,121,121,121,121,120
121,122,121,122,122,122,122,120,121,122,121,121,121,122,121,121,120,121,121,121,122,122,122,121,121,122,120,121,121,121,121,120,122,122,122,122,121,121,122,121,120,122,121,122,120,120,121,120,120,122,122,121,120,121,121,121,121,120,120,121,121,121,122,121,120,122,121,122,121,122,122,120,119,120,120,122,121,121,121,120,120,121,121,122,121,121,121,120,121,123,121,121,121,121,122,121,121,121,120,122,121,121,122,121,121,123,121,121,120,121,121,120,120,120,121,122,121,120,121,120,122,122,120,121,121,121,121,121
121,120,120,121,121,121,121,121,121,123,122,122,121,121,122,121,121,122,120,121,121,121,121,121,121,123,126,121,121,121,122,121,120,121,120,122,120,120,121,120,121,122,120,122,122,121,120,120,121,121,121,122,121,121,122,120,120,121,119,121,121,121,121,120,120,122,121,122,121,121,121,120,120,121,122,122,122,121,120,120,122,122,121,122,122,122,121,121,118,120,121,122,121,122,121,120,121,122,121,122,121,122,121,120,120,121,122,122,121,120,122,121,121,123,122,122,122,122,122,121,121,122,121,121,121,120,121,120
121,122,120,121,121,121,121,120,120,121,121,121,121,121,121,121,120,122,121,122,122,121,121,120,120,121,120,122,121,121,122,120,120,122,121,122,120,121,121,120,121,122,122,123,122,121,120,120,121,123,122,122,121,121,121,120,121,121,121,122,122,122,122,121,120,121,121,122,121,120,120,119,120,123,121,122,121,120,121,120,119,121,122,122,122,121,122,120,120,122,124,121,121,121,121,120,122,120,119,122,121,121,122,121,120,121,121,122,122,121,120,120,122,123,121,121,120,121,122,121,119,122,123,122,120,120,121,120
121,121,121,123,121,121,122,121,120,122,121,122,122,120,121,121,121,120,121,121,121,121,121,120,120,121,121,122,122,121,121,119,121,122,122,122,121,121,122,121,122,121,120,122,121,121,121,121,120,122,121,121,121,121,121,121,122,122,122,122,121,120,121,120,119,121,122,122,122,121,121,119,121,122,120,121,121,121,121,120,120,122,121,121,120,121,121,121,122,121,122,122,120,121,121,121,120,122,122,121,120,121,121,120,121,121,122,122,121,121,122,121,122,122,121,122,122,120,120,120,121,123,121,122,121,121,121,121
120,120,120,122,121,120,121,120,119,122,122,122,121,122,122,120,122,122,121,122,121,122,122,120,119,121,121,123,121,120,121,121,120,123,122,122,122,121,120,120,120,121,125,122,121,120,121,120,120,122,119,121,120,121,121,120,122,122,122,122,120,120,121,121,121,122,121,121,121,121,121,121,122,121,119,121,121,121,121,121,120,121,123,121,121,122,122,121,121,122,121,121,121,121,121,120,120,121,119,121,121,121,122,121,120,122,122,122,122,121,122,120,121,121,121,122,121,121,121,121,122,120,119,121,121,121,121,120
120,122,121,121,120,121,121,120,120,121,121,122,121,122,122,120,120,120,120,121,121,121,121,120,123,122,120,121,121,121,122,121,120,122,120,121,121,121,121,121,120,121,120,121,121,121,122,120,121,121,122,123,121,121,121,121,123,121,120,121,121,121,122,120,120,123,122,122,122,120,121,120,120,120,120,122,121,120,121,120,120,122,121,122,121,121,122,121,121,123,121,122,122,121,121,121,122,122,121,121,120,121,122,120,121,121,121,121,121,121,121,120,121,120,122,121,121,121,122,121,121,121,119,121,121,121,122,121
121,122,121,121,121,121,121,121,119,121,121,122,121,121,121,120,120,122,121,121,121,121,121,121,122,120,120,122,121,121,121,121,121,123,121,121,121,121,122,120,120,121,121,122,121,121,122,120,120,120,125,122,121,121,121,119,121,122,119,122,121,120,121,120,121,122,120,122,122,122,121,120,121,122,121,121,121,121,121,120,121,122,121,121,121,121,122,120,121,122,121,121,121,121,121,121,120,120,122,122,122,121,121,121,121,122,121,122,121,121,121,119,118,121,121,122,121,122,121,120,121,122,121,122,121,120,121,120
119,121,121,122,122,121,120,120,120,120,120,122,121,121,121,120,120,122,122,122,122,121,121,120,121,120,119,121,122,121,121,119,120,123,121,122,121,120,120,120,120,121,122,122,121,120,121,120,121,121,122,122,121,121,121,120,119,122,120,121,121,121,122,120,120,121,122,122,121,121,120,119,120,121,122,122,121,121,121,121,119,122,121,122,122,121,121,120,121,121,120,121,121,122,121,121,120,122,121,122,122,121,121,120,120,120,120,121,121,121,121,121,121,122,121,122,120,120,121,120,121,121,121,122,121,121,120,120
121,123,125,122,121,121,121,121,120,122,118,122,121,121,121,120,121,122,120,121,121,121,121,121,121,121,122,122,121,120,121,120,120,123,122,122,121,120,121,120,119,120,120,122,121,121,122,120,121,122,121,122,121,122,122,121,119,121,121,122,121,122,122,120,120,121,121,122,121,121,122,120,121,122,120,121,121,121,121,121,120,119,121,122,122,121,121,119,121,121,120,122,121,121,121,121,119,121,121,122,122,121,121,119,121,122,121,122,121,121,122,121,120,122,122,123,121,121,121,120,121,123,121,122,121,121,122,121
120,121,120,121,121,121,121,120,120,122,121,122,121,121,121,121,121,122,121,121,120,121,121,121,120,122,121,122,122,122,121,120,121,121,121,122,121,122,122,120,119,123,125,122,122,121,121,120,120,121,119,121,120,121,121,120,121,121,120,122,121,120,121,121,121,122,121,121,121,121,121,121,121,121,121,122,120,120,122,120,120,122,121,122,121,121,122,121,121,121,121,121,121,121,121,120,120,120,121,122,121,121,121,120,120,121,121,122,122,121,120,120,120,121,122,122,121,120,121,120,120,120,120,122,122,121,121,120
121,122,121,122,122,121,121,121,121,121,121,122,122,121,122,120,120,121,120,122,121,121,122,121,120,123,121,121,121,121,121,121,123,121,121,122,121,122,122,120,120,121,120,121,121,121,121,120,120,122,121,122,121,120,121,120,122,121,123,122,122,120,121,120,120,121,119,121,121,121,122,120,121,121,120,121,120,121,121,120,120,122,121,122,121,121,122,120,120,121,121,122,122,121,120,120,121,122,121,121,120,120,121,121,120,120,116,121,121,121,122,121,120,122,124,122,121,121,122,120,121,122,121,121,120,121,121,120
121,121,119,121,121,121,121,121,122,122,121,121,120,121,122,121,120,122,121,122,121,120,121,120,119,121,120,122,121,122,121,119,119,121,121,122,121,122,121,120,123,123,121,122,122,122,121,120,120,121,121,122,121,120,121,119,122,123,121,121,120,121,121,121,120,122,121,121,120,121,121,120,119,120,119,122,122,121,120,120,121,121,121,122,122,122,121,120,125,122,120,122,121,121,121,121,119,121,122,122,122,121,121,119,121,121,122,122,121,121,121,121,120,121,120,122,121,121,120,120,120,122,122,122,122,121,120,120
121,122,122,122,121,121,121,120,120,121,121,122,122,121,121,119,120,122,121,122,122,121,121,119,121,122,121,122,121,121,121,121,121,122,121,122,120,121,121,120,120,121,120,121,121,121,121,120,120,122,121,122,122,121,120,120,121,122,121,122,122,121,120,120,121,122,122,122,120,120,121,121,121,122,121,121,120,121,121,120,120,121,120,122,121,122,122,119,120,122,121,122,121,121,122,121,121,121,122,122,121,122,122,120,121,122,124,121,120,120,121,120,120,122,120,121,121,121,121,120,121,122,121,121,121,121,121,121
120,121,119,121,121,121,121,120,121,122,121,121,121,121,121,121,120,122,122,121,121,121,121,121,121,121,121,122,121,121,122,121,121,122,122,122,122,122,122,120,120,121,121,121,121,121,122,120,121,121,120,122,121,121,121,120,120,122,122,122,120,121,121,120,121,122,121,122,122,121,121,121,120,121,121,122,121,121,122,121,120,120,121,122,122,121,121,120,120,121,121,122,122,121,120,120,120,121,123,122,121,120,121,120,120,121,120,122,121,121,121,119,120,122,122,121,120,120,121,120,121,121,121,121,121,121,121,121
120,121,121,122,121,121,122,121,120,121,121,122,122,121,121,120,121,122,121,121,121,121,122,121,121,121,121,121,121,121,121,121,120,120,120,121,121,121,122,120,120,122,121,122,121,121,121,120,120,121,121,122,121,122,121,119,120,121,116,122,121,121,121,121,120,122,125,122,122,121,121,119,119,121,120,122,121,121,120,119,120,122,119,121,121,121,122,120,121,121,120,121,121,121,121,121,121,120,120,122,121,121,122,120,122,122,122,122,121,121,121,120,121,122,120,121,121,121,122,121,120,120,121,122,121,121,121,120
120,121,121,122,121,121,121,120,121,122,122,122,121,120,121,120,120,122,122,123,121,121,122,121,122,122,121,122,121,121,122,120,121,121,120,121,121,121,122,120,120,122,120,121,121,121,122,120,120,121,121,121,121,121,121,121,119,120,122,122,121,122,121,119,120,121,120,122,122,121,121,119,121,121,120,121,121,121,122,121,121,122,122,123,121,120,121,120,119,121,120,123,121,121,122,121,121,121,121,121,120,121,121,121,120,121,121,122,121,121,122,121,120,122,120,121,120,121,122,120,121,122,122,122,122,122,121,121
122,121,120,121,121,122,121,121,122,121,120,121,121,121,122,120,120,122,120,121,121,121,122,121,120,121,121,122,121,121,120,120,121,122,121,122,122,121,120,120,120,121,120,122,121,121,122,120,121,121,120,121,121,121,122,120,121,122,121,122,121,120,121,120,121,121,121,122,121,121,122,121,121,122,122,122,120,120,121,120,121,122,120,121,121,121,122,121,121,122,121,121,120,121,121,120,121,122,121,122,121,121,122,121,121,122,120,121,121,121,122,121,121,122,120,121,121,121,121,121,119,120,121,122,120,121,121,121
121,122,121,121,120,121,121,120,120,122,121,123,122,120,121,120,121,122,121,121,121,121,122,121,122,122,121,121,121,121,121,122,120,122,122,122,121,120,121,120,123,122,120,121,121,121,122,121,120,123,122,122,122,121,121,120,120,122,121,121,121,121,121,120,120,120,121,122,121,121,121,120,121,122,121,122,120,120,120,120,122,120,120,122,121,121,122,121,119,121,122,122,121,121,120,120,121,122,121,122,121,121,122,120,121,121,120,122,121,121,122,120,122,122,121,122,122,122,121,120,121,121,120,122,121,121,121,121
123,121,120,121,120,121,121,121,120,123,121,121,121,121,122,121,120,121,121,122,121,122,121,119,121,122,121,121,120,120,121,120,120,121,121,122,121,120,121,119,121,121,121,122,122,122,121,120,120,121,120,122,121,122,122,121,121,122,122,122,120,121,121,120,121,122,120,121,121,121,121,121,122,122,121,121,121,120,122,120,120,122,122,122,120,121,121,120,121,122,121,122,121,120,121,120,121,122,122,121,121,121,121,121,119,122,120,122,122,121,121,120,122,120,121,122,122,121,121,120,119,122,121,121,121,121,121,120
120,121,118,121,121,121,123,121,121,122,124,122,120,121,121,120,121,121,122,121,121,121,121,121,121,122,119,122,122,122,121,120,121,122,121,122,122,121,122,121,119,119,119,121,121,121,122,121,121,122,121,122,121,121,122,120,119,119,121,122,121,121,121,119,120,122,121,123,122,121,122,121,121,122,121,121,120,121,121,120,121,122,120,121,121,121,121,121,122,121,120,121,121,121,121,121,121,122,121,122,121,121,121,121,119,121,121,122,121,121,121,121,121,122,120,121,121,121,122,120,123,122,121,122,122,121,121,120
118,120,120,121,121,121,121,121,122,122,121,121,121,121,122,121,120,121,120,121,121,121,121,121,122,122,120,122,122,121,120,120,120,122,122,122,121,121,121,120,121,122,121,122,122,122,121,120,120,121,120,121,121,121,122,121,121,122,122,122,120,121,120,120,121,122,121,121,120,121,121,120,121,122,122,122,122,122,121,120,122,121,121,121,121,121,122,121,121,122,119,122,120,120,121,121,120,124,121,121,121,121,121,120,120,120,117,121,121,121,122,121,122,124,124,121,121,120,121,120,120,121,121,122,121,122,121,120
122,122,119,121,121,121,121,120,120,121,120,121,120,121,122,120,121,123,122,122,120,121,121,121,120,122,122,122,121,120,121,120,122,122,120,121,121,121,122,121,120,121,120,122,121,122,121,120,121,121,120,121,121,121,122,121,120,121,121,122,121,120,120,120,121,121,121,122,121,121,121,122,120,123,121,122,120,120,121,120,121,122,122,122,121,121,121,121,119,121,121,122,122,120,121,120,121,121,120,122,121,121,120,119,121,122,121,122,121,121,121,121,119,121,121,122,121,121,122,120,122,122,121,122,122,121,122,121
121,120,120,121,121,120,121,121,121,122,125,121,122,121,121,119,122,121,119,122,121,121,121,120,119,121,121,122,122,121,122,121,123,121,120,121,121,121,121,121,120,122,122,122,120,121,121,121,120,121,121,122,121,122,121,120,119,120,120,122,121,121,121,120,120,122,120,122,121,121,121,120,119,121,121,122,122,121,121,119,121,121,120,121,120,120,121,120,121,121,121,121,121,121,121,121,120,123,122,122,121,121,121,121,121,120,120,122,122,122,122,120,119,120,121,121,121,121,121,121,120,122,121,122,122,121,121,120
120,122,122,123,121,121,122,121,120,121,121,122,121,121,121,119,123,121,121,122,120,121,121,121,121,120,120,122,121,122,122,121,121,123,121,122,121,121,121,121,122,121,122,122,122,122,121,120,118,117,119,122,121,118,121,120,121,122,121,122,121,122,123,121,122,122,121,122,121,121,121,121,121,122,122,122,122,121,121,120,121,120,120,122,121,122,122,118,119,121,120,121,121,121,121,123,120,121,120,122,121,122,122,121,123,122,121,122,122,121,122,120,120,119,119,121,121,122,122,121,118,122,121,121,120,121,121,120
120,121,121,122,121,122,122,121,120,122,121,122,122,121,121,119,120,121,120,121,121,121,121,121,123,119,120,122,121,121,121,120,122,124,122,122,120,121,122,121,123,122,121,122,121,121,121,120,117,122,121,122,122,122,120,117,120,122,120,121,121,121,119,121,122,123,122,122,121,121,127,122,117,122,121,121,120,121,120,119,126,121,122,122,121,121,120,121,117,122,120,122,121,123,120,121,123,120,120,122,122,122,121,120,125,123,122,121,121,123,122,121,114,123,123,123,121,120,122,119,120,125,122,122,122,121,120,120
125,115,120,121,120,118,120,120,118,124,118,120,121,123,122,121,131,123,121,122,121,124,122,119,105,125,123,123,123,121,122,122,128,122,121,122,121,122,124,121,119,120,121,122,122,122,119,117,120,121,122,121,120,118,117,118,117,121,121,122,121,122,121,113,121,123,121,122,122,125,124,128,122,120,122,124,121,119,119,122,120,123,122,123,120,123,121,129,116,123,121,122,122,118,117,116,115,120,119,119,120,120,118,118,139,120,119,120,120,119,115,120,109,123,120,122,123,133,131,121,116,121,120,120,120,117,115,115
126,127,122,120,121,123,110,121,130,113,119,122,120,115,131,123,117,130,123,123,122,116,122,128,119,121,120,118,117,123,124,115,125,125,126,124,122,124,121,123,111,122,121,119,119,112,105,116,119,116,120,124,130,137,129,118,127,120,120,125,123,127,131,123,116,124,121,120,116,120,119,119,117,128,126,123,115,102,110,121,128,117,120,122,117,105,95,123,118,118,119,117,128,128,129,121,118,123,124,122,114,124,122,125,141,116,117,116,115,91,75,122,127,122,122,131,132,132,202,124,106,122,121,121,117,109,105,121
129,129,117,110,103,118,189,116,121,117,122,125,127,135,121,128,104,120,116,116,114,105,108,113,146,108,117,126,141,132,143,123,120,128,125,128,120,115,104,121,118,125,122,115,110,103,145,126,125,125,127,131,145,154,142,122,116,128,122,114,92,113,117,118,106,106,117,121,148,119,133,121,141,118,121,125,121,137,118,130,123,122,124,127,132,115,123,124,129,123,118,116,106,105,171,124,117,136,128,127,132,138,120,123,138,102,115,116,118,129,123,119,112,125,124,127,128,119,64,107,118,119,117,115,110,113,109,125
125,123,123,124,130,130,117,117,112,135,125,122,112,116,159,116,124,116,119,119,126,125,128,133,142,127,122,122,122,111,63,121,127,108,115,116,121,125,117,118,113,127,126,130,135,112,113,114,120,128,120,118,117,133,138,122,114,119,123,122,111,133,102,121,124,121,121,122,145,118,110,119,124,118,122,121,123,149,128,127,123,121,122,123,112,116,95,111,123,122,118,117,124,125,124,136,111,134,124,119,110,115,136,102,119,108,115,125,117,124,129,133,160,107,117,115,147,124,49,127,108,129,123,118,114,109,137,127
133,114,121,118,119,112,87,122,129,125,119,122,120,119,101,113,105,119,118,121,129,123,124,114,139,127,125,128,116,127,161,146,122,129,116,109,110,118,117,112,105,119,122,125,113,141,62,114,150,111,117,135,146,135,68,87,114,125,121,115,120,115,114,97,120,114,115,125,118,101,101,105,134,119,121,118,107,154,179,126,116,112,117,124,146,133,154,117,120,138,123,124,131,131,32,126,99,110,111,105,77,71,76,144,191,115,116,135,143,161,242,123,98,140,120,113,102,88,110,89,153,81,116,125,122,138,197,123
128,134,127,129,131,144,139,123,97,131,120,120,128,109,104,0,113,130,119,114,100,128,119,0,140,113,132,139,167,130,141,0,115,128,116,125,119,111,150,0,118,125,128,131,124,133,134,0,125,131,119,116,108,109,181,0,96,122,118,123,119,130,149,0,157,112,121,113,124,89,58,0,114,128,126,131,113,131,66,1,137,124,128,126,129,135,151,190,143,124,130,134,123,113,77,241,109,126,124,126,122,139,145,241,138,128,121,117,125,114,82,240,117,128,121,114,109,116,119,241,108,115,120,132,145,138,132,241
119,139,131,120,110,113,87,241,116,134,132,133,124,126,183,241,123,83,115,121,114,112,112,242,107,138,120,119,118,130,143,242,119,128,124,115,123,120,174,231,114,130,120,127,141,120,117,162,124,116,114,105,92,104,116,135,114,104,120,130,138,157,136,120,123,126,118,111,98,136,168,125,119,127,121,129,142,110,93,122,90,137,123,124,110,96,66,126,156,95,109,105,106,117,96,121,125,129,124,132,139,125,108,116,120,131,128,121,137,121,29,100,159,122,124,122,132,146,241,100,106,129,122,120,116,119,141,117
106,135,123,114,100,117,151,116,128,116,119,130,134,129,109,126,117,141,122,112,99,87,62,134,100,107,120,129,128,135,203,122,123,132,120,120,114,126,126,120,138,119,116,134,125,109,89,123,114,107,121,128,136,150,205,125,135,122,120,114,113,119,65,122,113,124,117,109,104,102,125,114,121,118,121,124,120,130,90,122,131,120,123,123,114,93,61,125,118,119,117,109,104,95,117,123,115,115,116,136,143,147,143,116,127,119,120,135,132,113,97,123,121,148,129,125,116,121,111,128,183,77,116,133,127,97,66,120
121,139,122,120,125,126,180,112,108,134,125,124,122,115,109,118,92,141,129,122,116,130,120,121,160,103,112,124,113,110,107,118,100,107,121,128,119,122,133,116,110,134,119,117,117,147,240,115,136,105,117,114,110,108,142,125,186,111,125,135,120,133,136,125,107,133,131,134,129,104,81,114,129,122,120,117,123,119,106,119,118,119,120,113,90,114,104,125,116,124,131,138,169,116,103,119,138,119,122,119,113,108,112,110,119,124,123,117,106,139,158,114,124,120,119,126,145,107,94,122,127,140,128,128,121,127,113,120
99,77,114,112,110,115,131,109,112,109,123,126,123,140,96,120,115,106,116,131,132,119,92,130,108,140,129,124,118,120,119,121,120,135,121,123,121,122,62,115,137,84,109,102,92,117,52,120,106,137,131,146,174,133,126,124,128,124,122,116,103,121,131,118,110,132,118,113,114,111,88,100,141,122,120,131,131,137,189,115,104,113,123,118,115,111,91,124,127,130,123,123,136,128,215,117,120,113,121,106,116,120,153,109,123,124,124,131,125,122,124,112,120,122,122,123,128,111,103,122,125,107,116,114,113,122,100,115
118,117,106,94,71,109,92,114,144,128,129,136,153,88,113,120,154,123,123,124,132,160,98,124,119,117,124,126,124,140,198,109,114,128,117,117,116,113,105,120,130,128,124,123,122,120,125,124,121,128,121,118,118,134,77,123,127,119,122,124,126,130,104,120,120,116,114,108,136,113,242,106,128,147,131,133,137,176,150,112,113,130,124,118,116,120,107,121,120,122,114,112,119,124,151,113,124,123,125,128,136,126,168,115,118,122,122,134,132,142,163,119,123,122,125,122,112,112,103,122,118,122,114,111,113,121,113,116
108,136,126,129,126,120,73,118,117,105,119,144,120,107,122,116,81,139,119,110,107,109,111,124,127,95,114,116,118,121,108,121,142,124,120,124,126,122,132,113,98,128,122,122,123,127,56,115,96,150,128,125,134,134,173,114,180,54,111,119,104,107,76,119,122,139,129,130,138,139,105,120,121,130,120,114,111,116,112,125,123,128,124,118,136,119,154,122,122,123,125,128,129,113,161,118,121,119,117,118,113,128,79,119,121,123,121,128,123,106,118,121,116,126,119,121,118,118,76,123,129,108,117,113,118,103,227,112
114,113,115,114,103,114,95,117,117,126,120,123,126,121,110,118,119,120,122,122,126,121,102,117,119,110,119,129,143,144,152,115,93,131,125,121,111,115,117,114,138,116,123,119,126,125,126,113,124,126,122,119,115,119,130,108,91,123,116,116,119,120,193,118,123,129,123,122,120,152,104,111,111,119,121,120,123,139,108,111,124,127,120,114,115,122,97,113,117,122,121,129,131,104,72,116,121,124,124,123,119,127,138,111,120,121,119,119,112,117,103,115,105,110,119,119,127,120,106,121,145,104,129,139,147,140,64,115
148,112,121,124,123,120,119,111,123,130,118,113,116,119,118,118,115,137,123,119,115,114,98,119,111,82,112,113,122,118,196,107,126,133,124,129,122,129,143,111,105,128,120,114,109,115,103,112,120,123,118,120,127,97,98,123,113,129,126,123,115,152,241,110,126,126,118,121,125,143,197,107,163,121,121,120,114,107,114,122,122,136,130,150,148,120,77,124,113,125,118,117,131,133,140,116,120,122,125,117,111,105,100,114,123,121,123,124,134,155,191,115,115,120,121,114,134,109,100,126,132,109,118,124,137,120,153,118
113,137,125,125,113,120,111,119,119,101,109,104,121,107,126,117,101,131,130,130,125,121,117,119,77,142,123,120,117,109,127,128,141,100,111,117,121,114,93,114,111,123,121,120,112,135,240,116,122,123,122,123,123,112,117,122,122,132,124,119,112,128,93,114,110,130,120,134,142,108,97,111,122,94,121,131,125,118,112,120,118,127,123,120,120,120,113,121,118,124,117,116,116,116,118,123,121,123,119,129,126,134,133,113,120,119,120,117,121,108,115,118,123,127,123,123,114,119,142,119,117,102,117,123,120,91,88,114
82,129,123,123,112,123,39,116,148,104,119,113,129,102,155,124,118,133,129,132,127,126,83,125,113,92,115,113,109,130,187,114,119,142,125,125,152,122,98,111,113,115,118,115,98,103,117,122,126,123,125,132,133,125,124,129,105,127,118,112,107,113,138,125,113,116,116,114,116,109,121,116,111,134,124,128,151,157,238,118,116,131,121,123,112,110,87,126,135,125,120,112,101,85,73,129,124,120,124,142,131,123,65,122,127,132,132,134,117,139,242,118,133,124,119,113,118,117,112,126,117,117,119,118,108,117,118,123
111,148,122,104,106,129,153,122,186,120,128,153,174,124,83,119,117,142,127,119,112,123,123,124,109,133,124,115,112,126,123,117,104,117,124,133,149,126,121,109,135,118,119,122,117,123,148,118,133,126,122,120,119,117,139,121,132,123,118,117,123,119,107,118,125,123,120,100,103,123,147,105,123,124,128,149,128,106,38,124,112,124,119,119,108,114,93,116,120,110,114,113,118,109,107,129,115,127,120,121,119,147,161,133,148,116,123,116,117,122,142,140,107,115,121,127,120,115,109,133,110,115,117,112,101,104,79,136
142,112,119,125,131,135,179,131,116,121,120,123,119,113,88,127,135,133,123,115,116,120,117,120,154,118,122,122,121,122,107,127,105,132,122,120,117,114,149,129,126,126,118,118,122,121,122,127,116,126,122,122,127,131,167,128,119,121,119,114,107,107,118,128,124,124,121,133,133,129,138,122,106,121,120,125,120,108,65,122,139,122,121,119,124,153,82,129,108,127,124,130,120,121,103,128,112,127,120,117,132,132,131,119,123,111,119,114,125,108,51,123,149,128,124,121,113,119,89,130,110,122,120,117,119,114,123,131
82,132,126,119,110,114,128,117,180,118,118,122,124,140,143,127,90,122,116,124,124,112,129,130,92,133,119,115,120,117,97,126,122,127,119,112,103,119,121,122,121,122,124,136,140,128,111,122,116,125,116,102,82,104,125,131,115,119,121,141,137,110,114,126,121,118,117,118,123,115,106,128,113,123,115,121,116,121,77,130,106,142,130,137,135,134,149,134,186,82,108,112,108,116,101,135,104,118,118,119,108,113,72,128,105,132,124,126,129,108,155,128,112,127,120,120,115,120,97,131,163,97,116,118,116,111,107,127
145,108,118,122,123,135,138,126,121,145,127,121,122,130,132,121,133,122,118,117,114,117,122,120,121,130,124,133,136,134,114,125,110,135,125,107,81,124,117,125,138,118,117,130,162,109,57,116,111,117,121,119,118,123,107,117,133,123,123,122,126,141,239,122,114,121,118,114,110,113,92,124,131,116,118,127,134,124,115,121,117,125,119,120,108,119,106,119,130,111,123,130,125,122,128,117,107,119,121,125,122,111,107,118,104,128,125,125,121,116,123,117,131,125,123,121,123,139,135,117,101,130,120,119,117,115,109,117
104,138,122,114,101,119,115,117,160,118,127,123,152,137,99,118,118,115,121,126,117,122,122,117,119,128,121,119,118,113,76,118,120,125,122,126,117,128,177,117,130,108,119,131,121,124,141,117,122,128,120,116,115,107,106,118,127,124,120,116,112,123,131,118,119,119,119,120,115,116,111,118,113,121,117,111,123,123,110,118,133,132,124,121,124,132,142,117,118,108,117,119,119,113,109,118,106,120,124,123,123,116,120,117,104,125,122,118,109,114,111,118,121,121,120,127,132,124,141,117,118,135,123,123,125,122,66,119
109,110,118,122,124,133,156,117,89,117,118,115,105,105,65,120,116,130,124,128,117,116,140,117,114,124,122,124,121,130,163,117,120,125,120,117,131,119,102,118,113,119,121,122,115,113,112,118,114,123,121,122,132,116,111,118,121,122,122,122,120,127,126,118,114,121,116,108,104,114,113,119,119,119,121,123,121,128,136,118,122,120,119,105,116,114,28,120,127,125,125,130,127,126,172,117,122,101,113,114,118,114,106,119,86,126,124,131,129,122,125,118,157,114,120,122,121,115,110,118,91,147,125,121,116,116,126,117
149,96,113,116,107,117,114,118,128,122,125,135,127,116,112,119,102,135,126,126,121,135,122,118,132,114,119,120,120,120,109,118,103,121,121,123,124,130,117,118,117,130,118,115,110,97,49,119,118,107,118,117,112,115,133,118,127,126,124,122,143,134,85,119,116,124,121,119,117,118,109,118,121,123,121,120,119,125,119,118,121,122,123,127,125,120,99,119,125,123,118,118,114,110,85,119,125,119,127,138,140,123,125,118,118,132,122,119,113,119,116,118,118,118,119,114,110,115,60,119,109,121,123,127,131,137,239,115
144,134,119,117,117,115,108,118,141,80,108,114,113,120,81,119,126,120,121,115,127,127,115,118,106,128,124,127,112,117,93,118,117,128,124,128,145,132,110,118,124,121,118,113,102,111,122,118,126,122,119,122,119,118,118,118,115,117,120,123,120,123,122,118,123,125,125,127,128,120,109,118,115,121,119,115,110,112,98,118,116,125,120,125,125,132,169,117,127,114,122,124,101,87,72,119,121,122,128,131,143,162,241,116,104,136,123,122,109,101,81,120,124,109,116,117,119,115,135,118,89,119,119,121,120,122,135,118
153,129,119,119,114,112,105,119,92,129,122,117,114,120,123,118,153,121,119,121,123,118,119,118,114,124,120,121,118,124,131,118,128,128,119,110,106,115,99,118,141,115,121,126,130,134,118,118,111,128,124,125,120,116,117,119,121,123,117,113,110,108,110,119,116,119,116,117,111,128,68,119,132,122,128,138,140,128,180,117,118,121,122,124,108,117,99,119,126,119,118,112,105,110,110,118,108,114,117,120,112,132,166,117,114,122,121,125,134,113,93,119,114,139,123,120,118,123,148,117,163,91,114,115,117,140,145,118
107,124,121,125,125,114,107,119,105,133,123,121,130,123,122,119,145,89,115,119,114,117,115,119,103,135,121,122,120,110,83,119,100,109,118,122,115,116,195,117,138,124,121,120,126,107,94,118,110,132,124,124,117,121,146,117,115,127,120,120,124,94,87,119,122,121,119,119,115,112,114,119,121,125,128,134,129,129,153,117,121,122,119,119,122,134,153,118,122,124,124,130,135,120,160,118,116,114,116,117,126,117,108,119,134,123,121,127,122,133,105,119,117,124,120,113,113,116,110,118,105,128,121,125,124,119,92,119
151,119,119,123,119,119,170,118,104,110,118,114,116,118,120,118,119,133,122,127,131,122,140,118,118,113,117,119,118,120,114,119,126,114,116,121,124,132,85,119,154,122,123,127,133,126,121,119,118,129,126,121,115,129,155,118,131,115,118,116,116,115,112,119,115,118,120,117,106,102,96,120,120,128,124,133,135,141,194,117,122,124,121,115,113,123,148,118,125,124,123,117,119,127,146,118,121,125,124,135,157,132,145,118,105,121,120,115,106,108,95,118,136,120,121,126,123,129,238,116,126,133,125,124,122,127,148,118
126,117,120,123,120,122,97,119,114,119,117,114,108,117,104,118,135,128,123,123,128,118,12,120,109,117,120,129,137,125,115,118,95,142,126,119,118,126,113,119,141,109,115,113,114,122,114,119,114,131,124,123,126,113,115,118,125,124,121,125,124,149,148,117,118,122,118,106,98,110,111,118,128,120,123,132,149,121,99,119,107,111,121,122,112,110,107,118,124,125,123,124,117,128,240,116,118,122,118,116,127,124,105,119,119,123,125,129,119,104,125,118,120,122,119,115,114,125,145,118,124,128,123,119,122,108,103,118
106,124,121,122,124,118,127,118,125,114,121,134,135,129,147,118,127,128,123,129,137,126,119,118,112,118,115,108,99,114,113,118,150,123,121,135,142,126,132,118,125,125,121,119,117,120,111,118,116,133,127,126,126,127,124,119,118,129,123,122,108,122,125,118,115,125,123,128,132,110,77,119,148,117,124,127,130,114,71,119,116,124,122,113,103,115,122,118,116,124,122,124,119,122,107,119,129,121,118,116,124,121,117,119,119,119,122,127,115,139,56,119,118,125,124,124,124,117,158,117,128,124,117,116,115,118,106,119
131,126,122,122,122,117,124,119,132,128,127,122,123,126,96,119,96,106,118,124,120,112,120,118,123,122,120,118,111,124,139,119,126,120,119,122,119,114,89,120,122,125,123,127,130,133,150,117,124,123,114,113,115,117,121,119,105,120,123,116,122,127,103,119,155,120,123,130,128,113,113,119,109,116,122,120,108,117,140,118,128,122,118,122,121,121,109,119,119,124,121,118,115,123,118,118,119,119,118,121,118,113,106,119,121,120,121,118,116,121,155,118,130,124,121,117,109,128,171,117,109,112,120,121,124,116,107,119
110,122,120,126,128,123,121,118,142,127,123,122,121,129,121,118,102,123,121,119,119,117,106,119,129,142,124,119,118,124,125,118,92,117,123,134,135,127,127,118,119,107,117,119,117,118,131,118,114,127,120,118,112,118,132,118,124,126,126,127,129,122,109,118,119,129,122,116,110,126,103,119,112,117,119,129,130,109,65,119,126,123,123,126,125,122,139,118,119,122,123,125,120,125,166,117,121,122,120,120,121,128,111,119,120,120,122,122,122,105,86,119,122,125,122,125,121,123,165,117,101,125,122,123,117,119,106,119
130,103,115,116,116,125,122,118,131,113,119,124,134,111,81,119,117,122,121,121,115,121,163,118,121,129,124,127,125,128,137,118,121,123,121,120,120,119,96,120,130,132,121,119,117,118,114,119,115,90,115,123,128,131,117,119,120,129,121,121,122,128,134,118,120,125,122,112,101,111,122,118,122,124,118,122,114,113,128,118,120,118,124,136,142,127,113,119,119,125,120,116,112,114,114,118,129,118,118,116,111,125,112,119,115,122,117,118,121,119,63,120,116,120,122,122,116,103,113,119,114,124,121,127,125,118,119,118
137,122,124,125,120,121,117,119,116,106,118,117,114,112,108,118,123,131,120,120,123,121,114,119,134,123,122,126,128,129,142,117,103,126,123,122,113,116,104,118,145,116,122,128,129,119,124,118,119,120,120,117,119,136,142,118,114,118,120,114,113,112,112,118,107,125,123,129,123,125,135,118,127,122,121,120,114,123,96,119,124,121,120,111,116,122,82,119,122,123,124,125,124,129,130,118,121,124,120,116,107,114,108,119,119,123,120,125,118,119,101,118,129,110,121,127,140,133,196,117,119,124,120,116,109,117,121,118
130,132,122,124,124,132,118,118,129,115,122,125,127,132,161,118,120,130,124,122,120,114,114,118,120,128,121,122,121,116,109,119,129,127,121,120,120,123,113,119,93,108,119,123,115,124,138,118,151,119,124,124,136,123,106,119,113,126,121,119,114,127,115,118,122,122,120,124,124,137,110,119,124,122,121,111,122,127,95,119,121,120,120,128,139,126,136,118,124,124,121,118,107,107,75,119,125,120,123,127,134,140,207,116,122,125,120,115,104,119,115,119,122,123,120,132,141,120,125,119,113,94,120,121,130,119,74,120
115,131,122,124,122,130,137,119,110,123,121,114,120,117,98,120,142,131,125,128,130,129,143,118,137,125,125,125,116,103,123,118,124,128,122,119,120,132,158,118,118,125,120,125,124,119,116,118,118,121,123,126,123,116,99,118,127,126,121,117,117,117,90,119,118,123,120,118,116,122,161,117,140,117,122,122,129,126,94,119,125,121,120,119,121,115,123,118,115,118,117,116,113,126,113,119,123,125,120,115,111,116,117,119,119,119,125,131,125,104,105,119,121,129,123,127,133,141,147,118,121,109,119,116,108,128,125,118
122,131,121,123,127,122,124,119,111,121,123,122,130,118,139,118,129,124,120,125,120,128,151,118,126,118,119,118,116,120,119,119,117,126,122,121,120,121,118,119,115,115,123,126,133,121,109,119,122,118,121,123,119,122,136,118,118,128,122,119,118,120,115,119,126,126,121,120,119,115,116,119,125,117,118,118,119,121,127,119,122,126,125,126,131,131,101,118,118,118,118,117,117,112,140,118,123,122,122,124,124,123,114,119,118,126,120,114,112,121,107,119,121,118,119,122,123,119,112,118,122,124,123,120,107,116,115,119
118,124,118,121,124,116,111,118,116,123,124,120,116,129,209,117,125,115,116,120,121,115,87,119,119,134,125,128,122,130,142,118,110,104,117,119,122,121,117,114,125,122,120,126,129,120,117,113,118,123,122,127,127,122,114,121,116,127,120,119,115,119,132,119,131,116,119,116,108,121,126,118,120,114,118,128,136,112,115,118,127,126,123,121,121,134,200,118,113,121,120,121,121,121,104,120,119,125,123,122,129,124,108,120,125,125,126,125,121,122,133,120,123,120,122,132,136,125,63,121,113,119,118,118,117,115,110,120
113,111,116,116,117,112,83,120,134,130,124,123,120,127,128,120,129,115,121,129,124,115,122,120,118,128,120,118,119,124,117,121,117,121,121,122,119,122,121,120,129,127,122,123,129,125,125,121,119,119,123,130,132,126,120,121,124,127,126,129,125,127,137,120,118,122,120,119,117,116,109,120,120,125,123,121,119,130,121,120,119,126,122,125,124,134,89,121,119,117,115,117,119,110,95,121,113,119,121,119,112,106,45,121,131,125,122,120,117,119,178,119,124,119,119,121,126,128,159,119,125,108,119,122,123,104,112,120
115,127,124,126,120,140,118,120,121,123,120,120,116,119,96,121,114,125,121,119,120,125,133,120,137,116,119,126,129,131,52,122,104,122,118,112,112,106,116,120,117,121,121,125,120,123,120,120,119,125,121,120,124,115,90,121,121,119,120,121,123,119,125,120,114,121,120,120,114,112,170,120,126,123,120,116,105,125,120,120,120,125,123,134,126,104,90,121,118,119,116,116,129,84,40,122,119,124,125,126,120,143,156,119,136,112,121,120,120,113,70,121,114,125,119,131,137,129,225,118,123,126,127,129,124,132,172,119
132,116,118,115,106,99,108,120,106,113,121,124,128,119,113,120,114,145,123,126,126,121,100,120,92,102,114,122,120,122,120,120,123,124,120,119,116,120,117,120,128,135,126,125,125,123,106,121,112,121,122,120,120,121,112,120,139,116,119,121,119,117,134,120,117,121,119,118,115,120,132,120,122,125,126,129,126,113,87,121,120,122,119,116,122,125,218,119,116,117,123,129,113,108,99,120,125,120,120,124,127,124,120,121,123,129,125,124,122,131,118,120,121,125,119,114,116,120,103,121,119,125,123,124,119,119,144,120
113,115,116,122,125,116,83,121,142,121,123,127,129,125,141,120,128,121,122,126,123,136,115,120,124,122,119,116,113,114,95,120,108,132,124,124,127,130,79,121,134,125,121,119,114,116,109,121,119,102,115,124,121,118,106,121,126,125,120,118,119,119,110,121,123,128,126,131,126,137,132,120,127,124,121,122,122,118,115,121,134,120,122,121,120,123,118,120,116,124,122,121,116,115,129,119,120,121,124,127,126,125,115,120,120,123,124,135,119,116,104,120,115,120,119,114,119,112,86,121,124,123,117,117,108,115,113,121
107,123,124,126,143,137,144,119,110,111,118,113,93,102,101,121,142,103,119,134,133,134,211,119,115,124,122,122,131,128,144,119,136,132,124,119,115,116,102,121,107,106,119,130,131,132,206,118,122,119,120,124,119,119,113,121,125,131,124,120,118,120,115,120,113,120,122,124,125,125,116,120,121,120,121,119,115,118,110,121,122,121,122,130,134,127,110,120,113,126,123,123,118,115,121,121,120,124,120,118,115,116,117,120,121,120,121,127,132,117,96,120,121,118,120,127,123,120,160,119,118,127,125,127,131,138,200,119
126,121,119,115,116,119,137,119,113,118,119,119,115,121,116,119,115,132,127,133,144,128,120,120,129,101,116,118,114,119,114,121,116,127,121,120,119,114,142,119,149,114,120,122,117,123,118,120,125,125,121,120,118,121,121,121,117,128,124,125,129,120,132,120,125,127,125,125,118,119,167,120,125,119,116,120,133,137,125,120,120,123,122,117,112,95,74,121,109,115,120,125,136,118,130,121,121,122,120,116,104,122,118,120,117,135,125,131,137,109,49,121,120,104,116,110,89,87,94,121,119,121,125,143,152,145,201,119
111,124,119,116,102,100,101,121,115,119,122,122,127,126,123,120,128,125,119,117,111,129,145,120,112,130,125,122,126,123,137,120,118,119,118,123,123,122,122,120,122,120,121,119,113,117,118,120,101,110,116,114,122,126,132,120,115,126,123,121,119,110,80,121,117,124,122,121,119,122,131,119,125,120,118,115,118,118,123,119,115,125,119,118,110,118,133,120,118,122,124,132,141,151,234,118,120,117,117,115,113,122,116,120,100,128,123,118,110,109,120,119,142,111,114,118,134,130,125,121,119,124,122,126,120,111,116,121
139,125,120,119,117,124,129,121,92,111,116,120,118,123,118,120,126,136,122,119,113,112,103,121,122,116,123,128,134,100,51,121,125,112,123,129,123,118,117,120,123,124,118,115,112,115,102,121,120,128,122,123,130,128,131,119,116,122,120,119,117,113,121,121,122,129,125,126,121,129,85,121,111,121,120,123,130,127,130,120,145,123,118,118,115,113,70,122,103,125,117,113,112,119,127,120,131,114,120,123,118,104,59,121,126,124,124,124,126,135,168,120,119,122,121,115,126,127,145,120,120,129,122,119,116,128,118,120
106,128,126,129,131,123,112,121,124,99,118,121,122,131,100,121,114,128,120,120,117,108,89,121,122,130,121,118,110,120,103,121,120,116,120,127,135,121,117,121,110,125,118,112,107,111,110,120,151,113,117,119,122,113,100,120,100,103,116,126,132,126,124,120,126,131,122,120,118,126,139,121,113,122,119,115,114,111,111,120,118,126,123,126,124,125,127,120,121,126,123,123,125,140,200,118,117,122,122,120,124,112,116,120,122,117,118,111,103,130,80,122,126,106,124,149,149,119,118,121,119,128,121,114,111,117,109,121
121,123,116,112,111,119,130,120,114,129,124,122,120,116,45,121,123,117,119,124,125,135,117,120,118,115,120,118,118,114,89,122,117,134,121,119,117,113,118,121,118,109,115,116,113,116,127,121,119,123,125,125,130,122,160,120,120,125,122,122,120,124,98,120,124,127,119,117,116,116,111,120,118,112,115,120,117,116,118,121,118,112,117,110,115,121,121,120,113,132,122,126,132,121,126,120,115,117,118,116,112,116,130,120,130,126,119,109,97,111,108,121,122,123,132,144,155,135,132,120,118,120,118,114,107,115,99,120
118,126,122,122,121,122,133,120,124,115,117,119,119,120,84,121,116,141,130,136,141,133,202,118,106,105,115,114,110,114,95,120,126,127,122,130,135,124,118,120,128,125,122,122,117,118,120,121,116,133,124,121,119,119,119,119,131,105,118,120,120,122,137,120,128,112,116,119,120,121,113,121,119,124,119,117,116,114,119,120,133,128,124,128,124,123,121,119,127,121,121,117,111,107,111,121,120,121,124,129,134,142,163,118,120,119,120,119,118,119,117,121,119,120,115,112,117,129,124,120,132,120,122,125,109,105,111,120
122,123,119,125,141,127,111,120,113,130,123,121,114,115,136,120,135,115,117,118,117,139,155,120,109,115,120,119,120,121,98,121,110,118,121,124,126,121,102,121,111,128,119,119,117,117,113,120,117,123,122,112,124,130,116,121,125,118,119,119,122,125,147,120,111,125,124,126,121,118,132,120,126,120,120,121,121,123,123,119,118,123,121,121,121,122,126,120,134,120,119,122,120,112,121,120,110,119,120,118,113,117,124,120,124,122,120,127,136,127,157,120,121,119,118,116,114,115,92,121,115,122,120,124,121,107,213,119
125,124,122,126,123,121,95,121,127,113,117,114,116,114,116,121,118,129,122,121,121,121,118,121,121,121,125,125,122,122,123,120,113,118,118,118,111,119,121,120,107,115,120,119,121,121,115,121,129,132,120,124,125,128,116,121,115,128,122,121,118,120,128,120,122,122,119,120,122,123,118,121,118,118,121,123,122,122,118,120,123,124,119,116,115,122,114,121,128,123,125,131,132,127,121,121,120,121,118,115,109,112,112,121,115,125,125,134,136,132,105,121,124,125,125,130,125,120,119,120,134,124,118,117,119,118,119,121
125,117,119,120,118,120,121,120,116,125,122,123,124,118,119,120,127,126,122,120,118,117,107,121,119,121,122,120,118,124,160,120,109,107,117,118,118,119,109,120,104,133,121,124,123,117,111,121,133,112,123,125,130,123,123,120,111,121,120,120,118,123,124,120,123,128,123,121,117,116,125,120,125,125,119,119,119,123,166,119,113,119,122,123,121,118,96,121,143,116,119,118,114,110,107,121,117,121,118,115,118,118,169,120,123,124,124,130,127,129,127,120,121,123,121,116,117,118,116,121,109,133,123,122,125,116,113,121
117,104,114,118,108,115,104,121,118,123,122,121,124,119,103,120,123,130,125,126,120,123,155,120,125,111,116,115,114,111,92,121,125,128,122,124,123,124,125,120,109,124,122,119,117,119,114,121,130,122,120,119,116,122,139,119,109,122,122,124,124,121,108,120,118,132,123,122,120,123,135,120,116,113,116,106,110,115,122,119,119,125,126,135,136,126,120,120,124,119,118,115,107,120,121,121,141,126,123,117,131,121,120,121,118,123,123,121,120,118,124,120,120,119,121,124,132,129,120,121,123,121,120,124,127,123,159,119
121,122,125,130,128,119,95,121,114,127,123,125,125,108,77,120,128,126,120,118,113,123,157,119,128,110,118,118,122,118,114,121,131,124,121,120,121,120,114,121,119,109,116,120,119,113,114,120,122,130,124,119,116,121,124,120,109,119,121,125,127,128,121,120,134,123,123,124,120,115,115,120,116,122,121,122,122,125,123,120,122,117,120,124,122,121,117,120,120,125,121,122,123,122,116,120,120,119,114,112,108,114,127,120,121,123,125,131,121,104,94,121,118,122,120,127,132,119,105,121,115,119,118,114,109,112,78,121
126,125,120,119,128,113,114,121,138,112,122,123,104,116,111,120,130,128,123,130,136,127,115,120,120,113,120,120,112,117,165,119,111,126,120,121,120,113,100,120,124,125,124,127,122,126,140,120,116,115,119,123,126,120,154,120,121,117,120,125,126,129,146,120,107,124,121,118,117,117,103,121,118,123,121,122,122,119,102,120,124,124,121,123,122,121,111,120,119,122,121,119,114,117,140,120,122,120,121,124,123,125,106,121,121,120,122,133,130,122,131,120,123,123,122,120,119,129,194,119,127,122,119,119,118,120,108,121
125,121,123,124,123,117,113,121,130,105,117,120,111,105,119,119,132,121,120,128,128,122,77,122,119,126,121,117,116,119,130,120,114,130,122,125,125,124,118,120,112,127,120,121,121,120,118,120,129,120,117,119,119,115,105,121,126,117,120,124,120,121,134,120,120,128,123,118,117,122,107,121,134,129,125,122,126,125,169,119,122,122,120,116,106,117,96,121,121,123,123,133,142,126,163,120,127,124,126,124,123,130,152,120,117,118,118,120,120,120,110,120,121,123,120,117,115,121,120,121,125,121,122,120,125,120,88,120
115,122,125,129,129,136,156,120,143,128,122,116,114,116,101,120,120,116,119,128,136,122,117,120,121,115,120,118,116,117,144,120,124,126,120,120,119,129,129,121,107,130,122,122,120,117,115,121,117,123,120,120,119,115,95,121,129,120,121,121,121,127,149,120,123,115,122,120,122,117,100,121,112,121,119,123,123,116,117,121,112,125,122,123,120,120,112,121,121,119,119,119,119,130,156,119,118,122,121,126,135,124,126,120,119,121,122,123,118,117,121,121,120,120,119,116,112,114,120,121,118,119,117,116,112,119,118,121
121,122,119,127,131,127,182,119,124,129,125,122,125,129,113,121,130,102,115,115,110,111,95,121,124,126,122,123,123,127,198,119,129,146,126,120,117,123,131,119,94,115,118,121,126,123,106,121,121,108,120,121,123,121,124,120,152,120,117,120,121,116,108,120,119,130,127,122,120,123,127,120,115,125,123,128,123,121,131,119,121,121,122,122,123,118,95,120,121,119,120,120,121,112,111,121,119,122,122,124,120,126,160,119,120,121,119,117,119,110,104,120,120,122,120,117,114,129,174,119,119,123,123,135,132,119,116,120
108,117,119,118,123,119,91,121,124,118,120,115,112,128,204,119,119,121,122,123,114,118,107,120,122,134,126,132,134,132,112,121,138,110,117,119,119,126,131,119,110,111,118,119,121,113,101,120,136,121,122,123,120,124,118,120,102,126,123,123,120,119,119,120,104,125,123,121,120,123,121,121,129,121,120,126,128,121,121,121,109,125,122,124,124,124,114,120,121,122,121,121,115,108,105,121,122,125,123,127,123,146,237,118,123,113,118,122,123,119,103,121,116,118,121,124,123,125,116,120,126,122,121,119,116,121,120,121
127,124,122,128,124,116,116,121,120,123,121,118,115,114,120,120,110,123,120,123,126,133,183,119,129,132,123,123,127,119,102,121,119,120,122,123,120,117,97,121,118,122,119,117,116,118,119,120,113,124,123,122,121,118,109,120,113,124,119,119,121,123,125,120,105,123,123,119,115,114,88,121,112,113,120,122,123,126,112,121,115,124,119,118,116,112,126,120,126,126,123,125,118,123,120,121,123,120,123,126,107,123,122,120,120,123,120,125,137,121,109,120,123,118,119,122,124,132,119,121,116,121,120,123,124,118,81,121
128,118,120,115,105,116,166,119,118,113,119,127,132,113,125,121,143,129,122,119,118,127,127,121,112,123,124,122,125,124,105,121,113,118,119,116,114,122,118,120,125,127,120,122,122,119,107,121,104,109,117,116,111,121,135,119,114,125,123,128,141,124,132,120,122,126,125,125,122,131,136,119,125,126,119,118,120,120,115,121,114,119,119,113,122,122,129,120,120,121,121,121,120,127,128,120,127,123,119,120,135,117,112,120,129,117,120,122,118,124,102,121,118,125,120,116,127,122,107,121,115,127,120,117,115,110,100,121
115,113,121,123,123,122,98,120,114,122,115,111,108,113,133,120,130,129,125,136,132,116,111,120,124,116,120,123,123,135,163,119,104,106,117,119,115,117,106,121,109,130,122,123,125,117,103,121,131,117,121,122,121,121,133,120,135,129,123,122,119,122,121,120,118,129,123,120,119,119,119,120,105,120,123,126,126,120,108,121,123,118,117,118,119,113,102,120,125,121,123,125,127,124,149,119,118,121,120,119,112,128,117,120,122,123,121,118,126,119,94,121,122,121,123,125,126,116,125,120,110,125,121,121,135,123,123,120
114,117,119,119,111,116,93,120,121,122,121,123,129,118,112,121,120,126,120,121,114,114,116,121,117,126,123,124,122,122,137,120,131,116,118,119,117,123,100,121,109,139,125,113,122,115,105,121,129,102,115,122,120,119,128,120,130,125,120,122,118,125,177,119,105,131,123,119,122,118,129,119,155,119,125,122,116,121,122,120,119,127,122,123,125,120,105,121,113,124,123,122,122,128,138,120,126,121,121,121,120,118,120,120,118,119,117,114,109,120,115,121,119,119,120,128,134,113,110,121,121,124,121,113,111,122,110,120
131,123,121,125,125,128,104,121,114,122,119,117,115,107,107,120,117,110,115,120,113,123,107,121,120,127,124,126,126,121,141,120,118,112,121,122,123,121,115,120,123,122,121,121,118,118,116,120,119,123,122,121,116,120,121,120,120,131,124,125,129,122,123,120,130,92,114,123,120,121,124,120,105,115,117,118,119,115,115,120,123,129,124,126,126,131,128,120,120,128,123,121,119,120,117,121,122,122,120,121,121,120,119,121,118,120,119,121,125,126,121,120,122,125,121,117,114,111,102,121,119,118,122,136,138,131,167,120
119,122,119,118,117,119,109,121,121,123,122,122,120,119,116,120,119,123,120,122,121,120,119,120,118,121,120,115,120,122,122,120,123,117,118,119,123,120,121,120,121,119,122,131,122,119,120,119,117,124,122,117,117,127,121,118,120,123,118,97,125,115,119,117,121,123,122,128,116,117,122,111,117,127,121,124,122,124,120,91,115,105,117,121,120,119,119,68,121,124,122,122,120,121,121,58,109,123,121,122,120,120,120,50,130,125,123,124,123,123,123,31,109,122,122,123,120,120,121,0,126,121,119,121,121,120,121,0
115,118,120,127,123,128,121,0,107,121,121,130,117,115,122,0,154,125,121,120,143,109,122,0,121,122,123,131,112,151,122,0,118,121,122,134,119,109,118,4,123,122,121,127,122,129,119,241,110,120,117,115,117,122,118,242,121,120,119,135,117,123,122,240,119,122,122,124,125,133,119,9,126,122,122,122,130,112,120,0,122,122,122,125,120,142,128,0,118,121,121,123,120,120,119,0,120,118,113,121,120,118,123,0,120,124,125,122,121,122,119,0,118,121,123,122,122,124,123,82,119,123,120,122,121,119,123,192
146,119,117,119,118,124,119,181,120,120,120,121,120,139,120,135,122,128,125,120,133,76,125,144,131,124,123,125,119,139,121,127,133,119,119,122,120,117,123,198,114,121,120,119,117,119,121,184,118,120,121,125,121,118,120,201,121,121,122,132,123,122,122,184,121,121,120,104,119,121,123,175,121,122,121,131,122,122,122,215,120,122,121,113,120,121,121,209,119,122,122,124,123,121,120,196,119,121,120,116,120,121,121,171,113,121,121,123,122,120,120,149,137,122,120,122,121,122,122,144,113,122,122,121,122,125,123,141
148,123,121,123,122,119,119,137,100,121,121,121,121,121,122,132,126,120,120,122,121,121,122,125,122,119,118,121,121,121,121,126,127,124,123,122,120,121,121,129,117,124,122,126,123,121,122,131,118,120,120,118,119,125,121,127,119,120,119,121,121,120,121,124,120,121,121,122,121,121,121,123,121,122,121,121,121,121,121,122,126,122,122,123,122,127,122,125,113,120,120,119,120,102,119,119,115,121,120,125,122,116,119,124,122,122,122,123,123,123,122,126,125,121,121,121,121,121,121,118,121,119,119,121,121,122,120,119
118,121,120,119,120,107,122,120,126,123,121,123,121,121,119,120,121,123,122,121,121,122,122,123,119,122,122,121,120,120,122,128,122,120,119,122,122,121,121,119,119,121,121,122,122,120,120,121,121,122,121,121,121,120,121,121,121,123,122,122,121,121,121,121,120,121,120,121,121,121,121,120,120,121,121,122,122,121,121,121,122,122,122,123,121,119,121,121,120,122,122,122,121,121,121,120,119,121,121,122,122,120,121,121,122,122,120,121,121,125,121,123,124,122,121,121,120,117,121,120,117,121,121,121,121,119,122,120
117,122,121,121,120,121,121,122,120,121,120,121,121,122,121,124,120,122,122,122,121,121,120,123,115,121,121,122,121,120,121,119,128,121,121,122,121,123,120,121,119,122,122,122,122,131,124,123,119,122,122,121,120,119,120,116,121,122,121,121,121,119,120,119,121,122,121,122,121,120,121,122,119,121,121,122,122,121,121,120,124,122,120,122,121,121,123,122,120,121,121,122,121,121,121,116,120,122,125,122,122,123,121,120,121,122,120,122,121,116,119,119,120,118,118,121,121,123,121,118,122,123,120,121,121,120,122,122
120,122,122,122,121,116,121,120,121,122,122,121,121,121,121,120,120,121,119,122,121,120,121,122,118,122,122,121,121,122,120,118,120,120,121,122,121,120,121,124,119,122,121,122,120,119,120,115,121,122,121,122,122,121,122,129,120,120,121,122,121,120,122,110,121,121,121,122,122,126,121,125,120,121,120,122,122,120,120,119,120,121,121,121,121,122,119,114,121,122,121,122,121,123,124,115,120,121,120,122,121,120,120,119,121,122,121,122,120,119,121,122,121,123,125,122,122,122,122,123,120,120,119,122,122,122,121,121
121,121,120,121,120,121,122,120,121,122,121,122,121,121,121,121,120,122,122,122,121,119,121,121,120,121,121,122,121,126,122,120,121,122,121,121,121,121,121,121,119,120,121,121,122,120,120,126,122,123,121,121,121,121,123,125,120,118,120,121,121,120,121,120,120,120,119,122,121,121,122,120,120,122,123,122,121,121,121,120,122,124,121,122,121,121,123,126,119,119,121,121,121,121,121,112,121,121,120,121,121,121,122,120,122,121,121,122,121,121,122,122,122,123,121,122,122,122,122,122,120,122,122,121,120,121,121,119
120,121,121,122,121,121,121,119,120,122,122,122,121,121,121,120,121,122,119,122,121,120,120,119,121,121,121,121,121,121,123,115,120,122,123,122,121,120,122,121,121,120,119,121,122,122,127,140,125,121,120,121,121,121,119,107,119,123,122,122,121,121,122,124,119,121,121,122,121,121,120,121,120,121,122,122,121,120,121,121,121,122,121,122,122,121,122,121,120,122,120,121,121,121,122,120,121,122,119,121,121,121,122,124,120,121,121,122,121,122,121,113,119,121,121,122,121,121,122,118,121,121,121,122,120,121,122,127
121,122,122,122,121,120,121,116,120,123,121,122,121,120,121,120,119,120,121,122,121,120,121,120,121,122,121,121,121,121,121,120,120,124,123,122,121,122,122,122,122,121,121,122,121,121,121,119,120,122,121,122,121,120,120,119,119,120,120,121,121,121,121,120,121,121,120,121,121,121,122,119,120,122,121,122,121,122,122,121,120,122,121,122,121,121,121,120,121,122,121,121,120,121,122,120,120,122,121,121,121,121,119,122,121,122,122,122,121,121,121,121,121,121,121,121,120,121,120,119,120,122,120,121,120,121,122,121
121,122,121,122,121,120,120,120,121,122,121,121,120,121,121,120,120,123,121,121,121,121,122,123,121,122,121,121,121,121,122,114,121,122,122,122,121,120,121,126,120,121,124,122,121,121,122,119,120,123,119,123,122,121,122,120,120,121,121,122,121,121,122,120,119,121,120,121,121,121,121,119,120,119,120,122,121,122,121,120,120,122,121,122,122,121,122,120,120,121,121,121,122,121,120,120,120,121,121,122,122,121,121,120,120,122,121,122,121,121,121,120,121,121,121,122,121,120,121,120,120,121,120,122,121,122,122,120
119,122,121,122,122,122,122,120,121,122,121,121,121,121,122,121,120,120,120,121,122,121,122,120,121,122,121,123,122,122,122,122,120,121,121,122,121,121,121,118,120,122,121,122,121,121,121,120,120,121,120,122,121,121,122,121,120,122,121,121,121,121,121,120,120,121,121,122,121,121,121,120,120,121,120,121,121,121,121,120,121,122,120,121,120,121,121,121,121,121,122,122,122,122,122,123,121,121,121,122,121,121,120,120,120,122,121,123,121,121,121,120,121,122,121,122,121,121,122,120,120,120,121,122,122,121,121,120
120,122,121,122,121,122,121,121,121,119,121,122,121,120,121,115,120,122,123,121,121,121,122,121,121,122,119,122,122,122,122,120,120,121,120,123,122,121,121,122,121,121,121,121,121,121,121,121,120,122,122,121,120,120,120,118,119,121,120,122,122,121,121,122,121,122,121,122,121,121,122,117,120,121,122,122,122,121,121,119,121,122,122,122,121,120,121,121,120,121,121,122,121,121,122,121,121,122,121,121,121,121,121,121,122,121,121,122,121,120,121,120,121,121,121,122,121,121,121,122,119,120,120,121,121,121,120,118
120,121,120,121,121,121,121,121,122,122,121,122,122,122,121,117,121,122,121,121,121,121,122,121,120,122,121,122,121,121,120,119,119,120,120,122,121,121,121,118,122,121,120,121,121,121,122,126,120,122,120,121,121,121,121,120,121,122,123,123,121,121,121,120,121,122,121,121,121,121,121,121,120,121,120,122,121,121,120,120,120,121,121,121,122,121,122,120,121,121,120,122,121,121,122,120,120,120,121,121,121,121,122,121,120,122,122,122,120,120,122,121,121,123,122,122,121,122,122,121,121,121,121,122,121,121,122,120
121,122,122,122,122,121,121,120,121,122,121,122,121,120,121,120,119,121,121,122,121,121,120,120,121,121,121,122,122,122,121,120,121,121,122,122,122,121,121,120,121,121,120,121,121,121,121,120,122,122,121,122,121,121,122,121,121,124,121,121,121,121,121,121,121,120,121,122,121,121,120,119,121,122,121,121,121,121,121,121,120,121,120,122,121,120,121,120,121,121,121,122,122,121,121,119,119,123,122,122,120,120,121,122,123,119,120,122,121,121,122,119,122,124,120,121,121,122,125,126,119,123,123,122,120,120,120,120
121,122,122,122,122,121,121,124,120,122,121,122,121,120,120,109,120,121,121,122,122,121,121,121,121,121,121,122,121,121,120,121,121,122,121,121,121,121,122,121,120,121,120,121,121,121,122,120,121,122,122,122,120,121,121,120,121,122,121,122,121,121,121,119,121,120,121,121,121,120,121,121,121,122,121,123,121,121,122,121,120,122,121,122,121,121,122,120,121,122,120,121,122,122,122,120,121,121,120,121,121,121,121,121,121,121,122,122,121,121,121,121,121,120,121,121,121,121,123,122,120,121,120,121,121,121,121,120
120,121,120,121,121,121,122,120,121,122,121,121,121,121,121,121,121,122,120,121,121,121,121,120,121,120,119,121,121,121,121,121,120,121,121,122,121,121,121,120,120,122,121,122,121,121,122,121,120,121,121,122,122,121,120,118,120,120,121,122,121,121,121,122,120,122,122,122,121,120,121,120,120,122,121,122,121,121,122,120,121,123,122,122,121,122,121,121,121,121,120,121,121,121,121,121,120,122,120,121,121,121,122,121,120,120,121,122,122,120,121,120,120,120,121,122,122,121,122,119,120,122,122,121,121,120,122,121
121,121,120,121,121,121,122,122,120,121,121,122,121,121,121,119,121,122,122,122,121,120,121,120,120,123,121,122,121,121,121,120,120,123,121,121,121,121,122,119,120,118,119,121,121,121,121,120,120,121,121,122,121,121,122,118,121,123,122,121,122,122,122,121,120,122,121,122,121,120,120,120,121,122,121,121,120,121,122,123,120,121,121,122,121,122,122,119,120,122,122,123,122,121,121,121,121,122,120,122,121,121,121,120,121,120,121,121,121,121,121,121,120,122,120,122,121,122,122,119,120,122,121,122,121,121,120,123
121,121,120,121,121,122,122,114,121,122,122,121,121,121,121,122,121,123,121,121,121,121,122,122,121,121,120,121,121,121,121,121,122,121,120,122,121,121,121,120,120,120,120,121,121,121,121,120,121,123,121,121,121,121,123,120,120,122,121,122,122,121,121,120,120,122,122,122,122,121,121,121,121,122,121,122,122,121,120,119,120,121,120,122,121,121,122,121,119,121,121,122,121,121,120,121,120,121,121,122,122,121,121,119,120,122,122,123,121,121,121,121,121,121,120,121,120,121,121,121,120,121,120,121,121,121,121,120
121,122,121,121,121,121,121,121,120,122,121,122,122,121,121,119,121,122,121,122,121,121,121,121,120,122,122,121,121,121,122,116,120,120,121,122,121,120,120,121,120,121,120,122,121,121,121,121,121,122,122,121,120,120,121,121,121,122,121,121,121,122,121,120,121,122,122,122,121,120,121,121,120,121,121,122,121,122,122,120,120,122,121,123,122,122,122,121,121,121,121,121,121,121,121,121,120,122,121,121,121,122,121,120,121,121,120,121,121,121,122,121,120,122,122,123,121,121,120,120,121,121,120,121,121,121,121,121
119,121,121,122,122,121,120,119,121,122,121,122,121,121,121,117,121,122,121,121,121,121,122,123,120,120,121,122,121,121,121,119,121,121,120,121,120,120,121,121,121,123,121,121,121,121,121,120,119,119,121,122,121,121,120,120,122,123,122,122,121,122,122,121,120,121,120,121,121,121,121,120,120,119,120,121,121,121,122,129,121,123,122,122,121,121,121,108,121,121,121,122,120,120,121,122,120,121,121,122,121,121,121,120,121,121,120,121,121,121,122,120,119,121,120,122,121,121,122,121,121,121,121,122,121,121,121,120
120,121,121,122,121,122,121,120,121,121,121,122,121,121,121,121,120,122,121,122,122,122,121,120,121,122,122,122,121,120,121,121,121,122,122,122,121,120,121,120,121,122,121,122,120,120,122,120,120,120,120,122,121,121,122,117,120,122,121,122,121,120,120,121,121,121,121,122,122,121,122,121,120,121,119,121,121,121,121,121,120,122,122,122,121,122,121,119,120,122,120,122,122,120,120,119,121,122,120,122,122,122,122,122,121,122,121,121,120,121,121,120,120,121,121,122,122,121,121,121,120,123,121,122,122,122,121,119
121,122,122,121,121,122,122,118,121,121,120,121,120,121,122,121,120,122,120,121,121,121,122,120,120,122,122,122,121,120,121,121,121,120,121,122,121,122,121,120,120,123,121,122,121,121,121,121,120,121,122,121,120,121,121,120,120,121,121,122,121,120,120,121,120,121,121,122,122,121,121,120,121,123,123,122,122,121,121,120,121,122,121,122,121,121,121,120,121,121,120,121,120,120,121,121,121,121,121,121,121,121,121,121,121,122,122,122,121,121,121,119,120,121,120,121,120,121,122,120,121,122,122,121,120,121,121,125
120,121,121,122,122,121,122,119,120,122,121,122,122,121,121,120,120,120,121,122,121,120,121,120,120,121,120,122,122,121,121,120,120,123,122,122,121,121,121,120,121,121,121,122,121,121,122,120,121,122,122,123,121,121,122,121,120,121,121,122,122,121,120,120,120,121,121,122,121,121,122,121,120,122,122,122,122,121,122,120,120,122,121,122,122,121,121,120,121,122,120,122,121,121,121,119,120,121,121,122,121,121,121,120,120,122,121,121,121,121,121,120,122,121,121,122,121,122,122,124,120,121,121,122,121,121,121,121
121,122,122,122,121,120,120,118,121,122,121,122,121,121,122,131,120,123,120,120,121,121,121,119,121,119,120,122,121,121,121,123,121,123,121,122,121,120,121,119,121,120,121,122,121,120,121,120,121,123,122,122,121,121,121,121,120,122,121,122,122,121,121,121,121,122,121,121,121,121,121,120,121,122,121,121,120,121,121,121,120,121,120,122,122,121,122,120,120,121,120,121,121,121,122,119,121,121,122,123,122,122,122,120,121,120,121,122,121,120,121,121,121,122,121,121,120,121,121,120,121,121,121,121,121,121,121,120
120,121,121,122,122,120,121,120,121,122,120,121,121,121,121,121,121,122,121,122,122,122,121,120,120,121,121,122,121,120,122,120,120,122,121,122,121,120,121,121,121,121,122,122,121,121,121,122,121,122,121,122,121,120,120,118,120,122,120,122,121,121,121,119,121,122,121,121,121,121,121,121,120,121,120,122,122,122,122,121,121,121,121,122,121,121,121,120,120,121,121,122,121,121,121,122,121,121,122,123,121,121,121,121,119,122,122,122,121,120,121,118,120,122,120,122,121,121,121,119,121,120,121,122,121,121,121,125
121,122,121,121,120,121,121,119,121,122,120,121,121,121,121,121,120,122,121,122,122,121,121,120,121,121,121,122,122,121,120,120,120,122,122,122,121,121,120,120,121,122,121,122,120,121,121,121,120,122,122,123,122,121,122,121,121,118,119,121,121,121,122,121,121,122,121,121,121,121,121,121,120,122,121,122,121,120,120,120,120,122,121,122,121,120,121,120,120,120,121,122,121,121,122,120,120,121,121,122,121,121,120,117,120,121,120,122,121,121,121,118,120,121,121,122,122,121,120,120,121,122,121,122,121,122,122,121
121,122,121,122,120,121,120,120,120,122,121,122,121,120,121,120,119,121,121,122,122,121,121,118,121,122,121,122,122,122,122,121,121,122,120,121,121,121,122,121,121,121,120,122,121,122,121,120,120,121,121,121,121,121,122,120,121,122,122,122,121,120,121,119,121,120,121,122,122,121,121,121,121,122,120,121,121,121,122,121,120,122,122,121,121,121,122,119,122,120,120,121,121,121,121,123,121,121,121,122,121,121,122,120,121,122,121,121,120,120,121,120,120,120,121,121,122,121,121,120,120,121,121,122,122,121,121,120
121,122,120,122,121,122,122,121,121,121,121,122,121,121,120,119,121,122,121,122,121,121,121,120,121,122,122,122,121,121,122,119,121,122,121,121,121,122,122,118,120,120,120,121,121,121,121,119,120,121,121,121,121,121,121,119,119,121,121,122,121,121,122,120,119,121,121,122,121,121,121,120,120,122,121,122,121,120,121,120,120,121,121,121,122,121,122,121,119,119,119,122,121,121,121,120,121,123,121,121,121,121,121,120,121,122,122,122,121,121,122,121,121,123,121,121,120,121,121,121,120,120,120,121,121,121,122,121
121,123,121,121,121,121,121,121,121,121,120,121,121,122,121,120,120,122,121,122,120,120,121,121,121,121,121,121,121,121,121,121,120,120,120,121,120,121,121,120,121,122,121,122,121,121,121,120,121,122,122,121,120,120,121,120,121,122,122,122,120,120,121,120,120,121,121,122,122,120,121,119,120,122,122,121,121,121,121,120,120,120,120,121,121,121,122,120,121,121,121,121,120,121,121,121,120,122,121,121,120,120,121,120,121,121,120,121,121,121,122,122,121,122,122,122,121,122,121,116,119,121,121,122,122,121,121,120
122,122,121,122,121,121,121,119,120,122,121,122,121,121,121,120,121,122,122,121,120,120,121,121,121,121,120,122,122,121,122,120,120,121,121,122,122,121,121,119,121,122,120,121,121,121,122,121,121,120,120,121,121,121,122,122,121,122,121,122,122,121,121,122,120,122,121,122,121,121,122,120,121,121,121,121,120,120,121,120,120,120,121,122,121,122,122,120,122,122,120,121,121,121,122,121,119,121,121,122,121,122,121,120,120,121,121,122,122,121,121,120,121,122,121,122,121,120,121,121,120,120,121,122,120,120,121,120
120,122,121,122,122,121,121,123,120,121,121,122,121,120,120,119,121,122,121,123,121,121,122,122,120,121,121,121,121,121,121,124,120,121,121,122,121,121,120,113,120,122,121,123,121,121,121,130,120,123,122,122,120,120,121,120,120,121,121,121,121,121,122,122,120,121,120,122,121,122,121,119,120,121,122,122,121,120,121,120,120,122,121,121,121,121,122,120,121,120,119,121,121,121,121,120,119,121,121,121,121,121,121,119,120,121,121,121,121,121,121,120,121,122,121,121,121,122,122,120,120,121,121,122,121,121,120,119
120,122,121,121,121,120,121,120,122,120,121,122,121,122,122,122,120,123,122,122,120,120,122,121,120,121,120,122,121,121,122,120,121,121,120,122,121,121,121,120,121,122,122,123,122,121,122,122,120,121,121,121,121,121,121,119,121,121,121,121,120,121,121,120,121,122,121,121,121,121,121,120,120,122,121,122,121,120,121,121,120,121,121,122,122,122,122,119,121,122,120,121,121,121,121,120,119,120,122,122,121,122,121,121,121,121,121,122,121,122,121,119,121,123,120,122,122,121,122,120,120,121,121,121,121,121,121,119
121,122,120,121,121,121,122,123,120,122,121,121,120,120,121,120,121,122,121,122,122,121,121,122,120,121,121,122,122,121,120,119,121,121,122,122,120,121,121,120,121,122,121,122,121,121,122,122,121,123,122,121,120,121,121,120,120,122,121,122,121,122,122,117,122,120,121,122,120,120,122,130,121,122,120,121,121,120,121,120,120,121,121,122,121,121,121,119,120,121,121,122,121,121,122,120,120,121,120,122,122,121,121,120,121,122,121,121,121,121,121,121,120,123,122,122,120,120,121,120,119,119,121,122,121,121,122,121
121,122,121,122,121,120,120,120,119,119,120,122,121,121,121,120,121,123,122,122,121,120,121,120,122,121,121,121,121,121,121,121,120,122,121,122,122,122,122,124,121,122,122,122,121,121,121,114,120,121,120,122,122,121,121,121,121,121,120,121,121,121,122,122,119,120,121,122,121,121,121,120,121,121,121,122,121,121,121,120,120,122,121,122,121,120,121,120,120,121,120,122,121,121,122,121,120,121,120,122,121,121,121,121,120,122,121,121,121,121,121,121,121,122,121,121,121,121,121,120,121,122,122,122,121,120,121,120
120,122,121,121,120,120,121,120,120,121,120,122,121,122,122,121,121,123,120,121,121,121,121,121,120,122,121,122,122,121,120,120,121,121,121,122,121,121,121,121,121,122,121,122,122,122,123,121,121,121,121,121,121,121,122,121,121,121,120,121,121,121,121,121,121,122,121,121,121,121,121,120,122,122,122,122,121,122,122,120,120,121,121,121,120,121,122,121,121,122,121,122,121,120,121,122,119,121,121,122,122,121,120,119,120,121,121,122,121,121,122,121,121,123,121,121,121,120,121,120,120,121,121,122,120,121,121,120
119,120,121,122,121,122,121,119,120,121,121,122,122,121,121,120,121,122,122,122,121,121,121,121,120,121,121,122,122,121,121,118,119,122,120,121,121,121,122,125,122,121,121,122,121,122,123,120,121,123,121,121,121,121,121,120,121,123,121,121,121,121,121,121,120,120,121,122,122,122,121,119,120,122,121,122,121,121,122,122,121,121,121,122,121,121,121,119,122,122,121,121,120,120,121,122,121,122,121,122,121,121,121,119,120,121,120,122,121,122,122,121,120,121,121,122,121,121,121,119,121,121,122,122,121,122,122,118
121,120,120,121,120,121,122,121,120,122,121,121,121,121,121,121,120,122,121,122,121,121,121,119,120,121,121,122,121,122,122,120,121,121,120,121,121,121,121,120,122,122,121,121,120,121,121,119,120,122,122,123,122,121,121,121,120,122,121,122,120,121,121,120,121,121,121,122,121,121,122,121,121,121,121,122,121,121,121,120,121,122,121,122,120,120,122,122,122,121,120,121,121,121,122,120,119,121,121,122,121,121,120,119,120,121,121,121,121,121,123,122,121,122,122,121,120,121,121,120,121,121,121,122,121,121,120,119
121,121,121,122,121,121,122,121,121,123,121,121,121,121,122,123,120,122,122,121,121,121,121,120,121,122,121,121,121,121,122,120,121,122,121,121,121,121,121,120,121,121,120,122,121,122,122,120,121,121,121,122,122,121,120,120,120,121,121,121,121,121,121,120,122,121,121,122,121,120,121,120,120,123,122,123,122,121,121,121,120,121,122,122,121,121,122,122,121,122,121,123,121,120,120,119,121,122,120,121,121,121,122,119,120,123,122,122,122,122,122,120,121,120,122,122,121,121,121,119,120,122,121,122,122,122,121,119
121,121,120,121,121,121,122,121,120,122,121,122,121,121,121,124,121,120,120,121,121,120,121,121,121,121,120,121,121,121,121,119,121,123,122,122,120,120,121,121,120,122,120,122,121,121,121,120,121,123,122,122,122,121,121,123,120,121,121,122,120,120,120,120,122,121,121,121,121,122,122,122,121,121,120,121,121,121,122,121,121,122,121,122,120,121,121,121,120,121,120,121,121,121,122,121,120,122,121,122,122,121,121,120,120,120,121,122,121,121,121,120,120,122,120,122,121,121,121,119,121,123,122,122,121,121,121,121
121,122,122,122,121,121,122,121,120,121,121,121,121,122,121,119,120,121,120,122,122,122,121,119,121,122,122,122,121,121,122,122,120,120,120,121,121,120,121,120,119,122,121,122,121,120,121,120,123,122,121,121,121,121,121,121,120,122,121,121,120,121,121,120,119,118,120,122,122,122,122,119,121,123,121,122,121,122,121,120,120,120,121,121,122,121,121,118,121,121,120,121,121,121,122,127,120,121,120,121,121,121,121,120,120,120,120,121,121,121,121,117,121,122,121,122,121,120,121,120,120,120,120,122,120,120,121,120
121,123,122,122,122,122,121,120,121,122,121,121,121,121,121,121,121,121,121,122,121,121,122,120,121,122,121,121,121,121,121,121,120,122,120,122,122,122,121,119,123,119,120,122,122,121,121,120,121,123,122,122,121,121,121,121,119,122,120,122,121,121,121,120,120,122,121,121,121,121,121,120,124,121,121,121,121,122,121,123,120,123,121,121,120,121,121,120,121,120,120,121,121,121,121,120,120,122,120,122,121,121,121,120,120,122,122,122,120,120,122,119,120,121,121,122,121,122,121,120,120,121,121,122,121,121,121,120
120,121,121,122,121,121,121,120,120,121,121,122,121,121,121,119,121,122,121,121,121,121,122,121,120,121,121,122,122,121,121,120,121,121,121,121,121,121,121,119,120,122,121,123,122,121,121,121,120,121,121,122,121,121,122,121,121,121,121,121,121,122,122,120,120,122,122,121,121,121,121,120,119,121,121,122,121,121,121,118,120,121,121,122,121,121,121,119,120,123,121,121,121,121,121,120,121,121,120,121,121,121,121,121,120,121,121,122,121,120,121,120,120,122,121,121,121,121,122,122,121,123,122,122,120,120,121,120
122,121,120,122,121,122,122,122,121,122,121,121,121,121,121,119,121,121,121,122,122,121,121,118,120,121,121,122,122,122,121,120,121,121,121,121,121,121,121,121,120,120,121,121,121,121,121,120,120,122,120,122,121,122,122,120,121,122,121,121,120,121,121,121,121,122,121,122,122,121,122,121,120,121,120,122,121,121,122,121,120,121,121,122,122,121,121,119,122,122,121,122,122,122,121,120,122,122,120,121,120,121,121,120,120,121,121,122,122,121,120,119,120,121,121,122,121,120,120,120,121,123,121,121,121,122,121,120
121,121,122,122,121,120,120,120,120,122,121,121,120,120,122,121,121,123,121,121,121,121,120,119,121,121,121,122,121,121,120,120,121,122,122,122,121,121,121,120,119,121,121,122,121,120,120,122,121,122,121,121,121,121,122,120,122,122,121,121,120,121,122,132,121,121,121,122,122,121,122,119,121,122,121,122,121,120,120,119,120,121,120,122,121,121,121,121,121,121,120,121,121,120,121,121,121,122,122,122,122,121,121,121,120,122,121,122,121,120,121,120,121,121,121,122,121,121,121,120,121,122,121,121,120,121,122,121
120,122,122,122,121,120,120,120,119,120,121,122,121,121,120,118,121,119,120,122,121,120,121,121,120,121,120,121,121,121,122,120,120,123,122,122,121,122,121,120,120,122,121,122,122,122,122,121,120,122,121,121,120,120,121,120,122,122,121,121,120,121,121,120,120,122,120,121,121,121,121,121,121,122,121,121,121,121,122,121,121,122,121,122,121,121,121,119,120,123,121,122,121,120,121,119,121,121,122,122,122,121,120,119,120,122,121,121,121,121,121,121,121,122,121,123,121,119,121,122,120,121,121,122,121,121,121,119
120,121,121,122,121,121,121,120,120,122,121,122,122,121,121,120,120,121,121,122,121,122,121,119,120,121,121,122,121,122,121,121,120,122,120,121,121,121,122,122,122,121,121,121,120,120,121,118,122,123,120,121,120,121,121,119,119,119,119,121,121,121,121,120,120,122,122,122,121,121,121,120,120,121,121,122,121,121,122,121,120,122,122,122,122,121,121,121,122,123,121,122,121,122,122,123,120,120,121,122,121,121,121,121,120,121,121,121,121,121,122,121,120,121,121,122,122,121,121,119,120,121,120,122,121,122,121,120
121,121,121,122,122,121,121,120,120,120,121,122,122,121,121,120,120,122,121,122,121,122,120,117,120,121,120,122,121,121,121,124,121,122,121,121,121,121,121,119,120,121,121,122,121,121,121,120,120,122,121,122,122,121,120,119,120,121,121,122,121,122,122,121,120,121,120,121,121,121,122,121,120,122,121,122,120,121,122,120,121,121,121,121,121,121,122,121,119,120,121,122,121,121,122,121,120,122,121,123,122,122,122,121,121,122,121,121,121,121,122,120,120,121,121,122,122,121,121,120,120,121,121,121,121,121,121,120
120,122,121,122,122,122,121,120,121,122,121,122,121,121,121,121,121,121,121,122,122,122,122,120,121,121,121,121,121,121,122,121,121,122,120,121,121,121,122,121,121,121,121,122,121,122,121,119,120,121,122,122,121,121,121,121,120,123,121,121,120,120,121,120,121,121,120,122,121,121,120,120,120,120,120,122,121,120,121,120,121,123,122,122,121,121,122,120,121,121,121,122,122,121,121,122,120,122,121,122,121,121,122,124,122,121,121,122,122,121,121,118,120,122,121,122,121,120,121,120,120,122,121,122,122,121,120,119
121,122,121,122,122,122,122,121,120,121,121,122,121,120,120,120,121,122,121,122,121,121,121,122,120,121,122,122,122,121,120,120,121,121,120,121,121,121,121,120,120,122,121,122,121,121,121,121,121,123,121,122,121,121,122,120,120,121,122,122,121,121,121,120,120,121,120,121,121,121,122,122,120,121,121,122,122,121,120,117,120,121,120,121,121,121,121,121,121,122,121,122,121,121,120,120,121,122,122,122,121,120,121,121,120,122,121,122,120,120,121,121,121,122,122,122,121,121,121,120,120,122,121,122,121,121,121,121
122,121,121,121,121,121,121,121,121,122,121,122,120,121,122,121,120,121,120,122,121,122,121,120,120,121,120,122,122,122,121,118,121,122,122,122,120,120,121,121,120,122,122,122,121,120,121,116,121,121,120,121,121,121,122,130,121,122,120,122,121,121,121,119,120,121,122,122,122,122,122,120,121,121,120,121,121,121,122,121,120,121,120,122,122,121,121,120,120,123,122,122,121,120,121,119,120,121,122,122,121,122,122,120,121,122,120,121,121,121,122,121,121,121,120,121,121,121,122,121,119,121,121,122,122,121,121,120
120,121,121,122,121,121,122,120,121,121,121,122,121,121,121,121,120,121,121,122,121,122,122,118,121,121,121,122,122,121,121,119,120,122,121,122,121,121,122,119,121,122,121,122,121,121,121,120,121,122,121,121,121,121,121,121,120,122,121,122,121,121,121,120,120,121,122,122,121,121,121,119,120,122,121,122,122,121,121,121,120,121,120,122,121,121,122,120,121,122,121,122,121,120,120,121,122,120,119,121,121,121,121,120,119,122,122,123,122,120,121,120,121,122,121,123,121,121,121,120,120,121,121,122,121,122,121,119
121,121,120,121,121,121,121,120,119,121,122,122,121,121,120,117,121,120,121,122,122,121,122,125,120,121,121,121,121,121,122,120,120,121,121,122,121,121,121,120,120,121,119,121,121,121,121,120,121,121,121,122,122,121,122,120,121,120,121,121,121,121,121,119,121,122,122,122,120,120,121,119,120,121,121,121,121,121,121,120,120,121,120,122,121,121,122,121,122,123,121,121,121,121,122,121,121,120,120,121,121,121,122,123,121,121,120,122,121,121,122,120,119,121,121,122,121,121,121,120,122,120,120,122,121,121,121,121
120,121,120,122,121,121,121,121,121,122,121,121,121,121,121,121,121,122,121,121,121,121,122,121,121,121,121,122,121,120,121,120,120,119,119,121,121,122,121,121,120,122,121,122,122,122,121,119,120,122,122,121,121,121,123,126,120,121,120,122,121,121,121,120,122,121,120,121,121,121,121,120,122,122,121,121,121,121,121,121,120,123,122,122,121,121,121,120,119,119,120,121,121,121,122,121,121,122,121,122,122,121,121,119,120,122,121,123,122,121,121,120,121,119,120,122,122,121,122,121,119,121,121,122,121,121,121,119
121,123,121,121,121,121,121,121,120,121,120,122,121,121,122,120,121,121,122,122,120,120,122,121,121,121,120,122,121,121,121,120,120,121,120,121,121,121,122,121,121,122,121,121,120,121,121,120,120,120,121,122,121,122,122,119,120,122,121,122,121,120,121,119,120,122,121,121,121,121,121,122,122,122,123,122,122,121,120,120,119,120,119,121,121,121,122,121,120,122,121,122,121,120,120,118,120,122,120,122,121,121,123,120,122,120,121,122,122,121,121,117,120,120,120,122,121,121,122,122,119,121,121,122,121,121,120,119
122,122,122,122,121,120,121,120,120,122,121,122,121,121,121,121,120,122,121,121,121,121,121,120,121,123,121,121,121,121,122,121,119,119,119,121,121,121,121,119,121,122,121,121,121,120,121,121,122,122,121,122,122,122,121,120,121,122,121,121,121,121,121,121,121,122,121,121,121,121,121,120,120,121,120,122,121,122,122,121,120,121,121,122,122,121,121,120,121,121,121,122,121,120,121,121,121,121,121,121,121,121,121,121,121,121,120,122,121,121,122,121,121,122,121,121,121,120,122,121,120,120,120,121,121,121,120,120
119,120,121,122,121,121,122,120,121,123,121,122,122,121,121,119,121,120,121,121,121,122,121,118,121,122,121,122,121,121,121,121,120,122,121,121,121,120,121,119,121,120,121,123,121,120,120,120,120,121,120,121,121,121,121,120,121,123,122,122,122,122,121,116,119,121,121,123,122,121,121,119,121,121,120,121,121,121,121,118,120,122,122,121,121,120,121,121,121,122,121,121,121,121,121,120,122,121,120,121,121,121,121,121,120,120,121,122,121,121,122,120,121,123,121,121,121,122,122,121,121,121,120,121,121,121,122,121
121,122,120,121,121,121,121,121,119,121,121,121,121,121,121,118,122,120,120,121,121,121,121,120,121,123,121,121,121,121,122,121,120,121,121,122,121,121,121,121,121,121,121,122,121,120,121,119,119,120,121,122,121,122,122,122,121,122,121,122,122,121,120,119,120,121,121,123,122,121,121,119,121,122,122,121,121,120,122,120,120,122,121,122,121,120,121,121,121,121,120,121,121,122,122,121,121,122,120,121,121,121,121,121,120,122,122,122,121,121,121,117,120,121,121,122,122,121,120,118,121,121,121,121,121,121,122,125
119,121,120,122,122,121,120,117,121,121,122,122,121,121,121,131,120,121,121,122,122,121,121,118,121,122,121,121,120,121,122,119,120,120,121,122,121,121,121,119,121,123,121,121,121,121,121,121,119,119,121,122,122,122,121,120,122,122,120,121,121,121,121,120,121,122,121,122,121,120,121,120,120,121,122,122,122,121,121,121,119,121,121,122,121,121,121,118,121,120,120,121,121,121,122,121,120,123,122,122,121,121,121,122,121,122,121,122,122,121,121,120,121,122,120,121,120,120,121,121,120,121,121,122,121,121,122,121
120,122,121,122,121,121,121,120,121,121,121,122,122,121,120,120,121,122,122,122,121,121,123,123,120,120,120,122,122,120,120,118,120,121,121,122,121,121,121,121,121,121,120,122,121,121,122,122,120,122,122,122,122,121,121,120,120,120,120,122,121,122,122,120,121,123,121,121,120,121,121,120,119,121,121,122,122,121,121,119,121,122,122,123,121,121,122,120,121,122,121,123,122,122,121,121,120,121,121,122,121,121,121,122,119,120,120,122,121,121,121,118,121,121,120,121,120,121,122,122,120,121,120,122,121,121,122,120
121,122,122,122,121,120,121,121,120,121,120,121,121,121,122,120,121,122,121,122,120,121,121,121,121,122,121,121,121,121,121,120,121,122,121,122,121,120,121,123,119,122,121,121,121,121,121,116,123,121,120,122,121,122,122,124,121,120,121,122,121,122,121,118,120,122,121,122,121,121,122,120,120,122,120,122,121,121,122,123,121,122,121,121,121,121,121,118,120,122,120,121,121,121,121,121,118,122,122,122,121,120,121,118,117,118,119,121,121,119,120,118,119,123,122,121,120,123,121,125,132,122,121,122,121,122,122,133
105,120,120,121,121,113,119,110,132,123,121,121,116,109,119,115,97,119,120,121,121,123,118,111,114,120,120,120,122,136,121,121,157,128,125,126,119,113,130,141,127,122,122,123,124,135,123,130,110,119,120,123,119,104,116,108,116,120,121,122,120,119,123,121,120,120,120,122,120,120,121,119,120,122,122,123,121,117,121,120,121,121,121,122,121,119,122,122,125,120,120,122,121,122,122,119,129,121,120,121,120,121,121,122,93,120,121,121,121,119,120,118,130,121,121,123,122,125,123,119,134,122,121,122,121,133,127,134
116,123,122,122,121,119,115,113,116,125,123,123,118,106,122,135,123,124,121,122,129,108,122,134,90,120,121,122,121,139,123,106,101,119,119,118,121,122,118,110,142,123,120,127,120,108,122,135,134,121,122,126,126,86,125,99,101,123,122,122,108,101,124,122,118,119,118,114,138,132,119,127,89,121,123,126,128,120,126,119,131,124,122,124,121,119,120,125,128,122,121,122,120,120,120,115,124,121,121,120,119,124,120,119,129,117,118,121,125,123,117,113,101,122,120,121,119,124,124,129,148,125,124,123,123,125,126,120
86,120,120,122,120,119,117,119,108,118,118,118,113,133,119,118,106,123,120,120,128,114,119,125,154,120,120,121,121,121,121,121,114,126,123,124,122,123,125,147,158,123,122,122,120,122,119,112,126,122,122,122,123,139,126,158,90,119,120,123,132,147,127,98,149,122,122,122,127,120,126,135,104,119,119,119,118,116,117,109,84,120,120,124,132,105,122,84,148,126,124,124,108,82,114,142,136,123,122,125,126,126,134,172,101,119,122,136,110,114,114,92,130,124,122,113,142,207,136,125,116,120,119,117,111,122,126,143
148,123,122,124,119,125,114,110,97,121,121,124,119,119,124,137,126,117,120,123,121,123,121,108,122,125,122,125,130,97,122,136,70,124,122,123,122,124,124,112,127,121,121,122,121,121,117,105,102,119,120,122,121,121,120,103,177,128,124,123,122,124,126,152,98,121,121,122,120,119,120,109,89,115,119,121,120,119,116,95,165,132,126,124,119,133,132,158,93,117,119,119,117,133,116,101,192,126,123,122,115,108,128,152,81,125,123,120,106,115,122,139,108,117,119,122,124,123,117,96,140,118,119,119,112,91,126,135
93,126,124,125,120,149,128,120,138,119,118,122,122,139,118,116,128,120,120,121,123,151,126,116,102,119,118,119,116,114,117,115,126,124,125,128,123,117,127,151,122,118,119,128,114,150,111,94,120,123,119,109,130,89,122,125,116,124,121,124,112,159,134,120,153,121,123,123,121,125,124,164,137,124,122,124,122,122,122,121,124,117,119,122,110,98,114,93,102,122,120,120,130,104,123,95,97,122,120,121,119,109,120,103,198,126,125,124,118,114,134,159,110,122,122,123,120,123,121,114,120,118,119,120,119,114,117,116
113,120,120,120,118,111,121,129,127,122,121,120,119,101,115,100,100,119,118,120,130,123,128,133,135,125,121,120,117,116,121,124,100,120,120,121,123,130,117,129,152,118,117,119,106,90,116,102,129,126,124,119,138,167,122,144,104,128,124,125,109,132,135,146,157,122,122,121,123,117,121,123,110,119,122,128,123,126,121,113,115,124,122,114,122,39,116,117,110,124,127,135,163,224,127,158,201,124,128,129,121,126,124,123,76,119,115,123,119,120,121,98,115,119,120,122,120,123,120,120,119,121,122,126,118,129,122,116
123,122,122,116,130,170,125,122,57,119,120,124,131,110,123,88,142,123,122,122,121,123,120,126,103,118,120,121,118,117,111,104,116,115,119,120,119,118,117,87,134,125,123,124,123,120,129,162,111,124,123,123,122,123,121,152,120,120,120,121,120,119,121,118,149,120,122,122,120,97,119,110,168,122,121,127,106,112,125,116,113,122,120,116,128,128,128,130,183,119,120,122,121,119,120,128,119,122,121,120,120,120,121,129,93,121,121,121,120,123,122,120,152,124,122,124,114,93,118,111,94,120,120,132,126,105,119,84
144,123,122,122,127,123,132,163,123,122,121,124,130,118,121,79,140,124,123,124,122,128,122,141,151,122,120,121,126,121,119,123,126,122,124,126,107,52,130,109,141,117,116,103,118,124,112,109,145,126,123,125,116,110,119,126,118,122,122,123,120,121,127,151,123,119,120,126,127,104,118,119,104,117,116,110,125,104,122,120,111,121,122,124,118,112,120,119,108,122,123,124,122,119,124,111,148,126,121,121,121,122,123,119,123,119,118,119,123,135,114,99,97,124,120,121,116,87,128,156,111,126,123,123,135,148,122,117
120,118,119,121,125,120,118,105,80,118,120,120,116,112,114,103,124,126,121,121,115,113,124,118,142,122,123,123,118,116,124,130,124,122,122,130,141,120,129,133,109,119,120,122,123,102,113,107,127,124,122,123,117,120,126,137,149,121,122,125,123,83,121,120,122,122,118,101,106,88,110,132,87,119,119,125,120,119,118,105,119,119,120,122,123,120,119,122,116,126,122,123,123,108,123,127,121,122,122,123,118,106,120,98,128,122,122,122,122,119,125,128,143,122,122,123,124,120,124,153,118,120,121,122,121,120,118,93
129,122,120,120,117,112,118,126,113,119,119,119,118,123,118,111,69,121,122,125,132,126,119,101,113,124,122,123,110,128,126,132,174,121,120,121,119,122,124,158,127,122,122,122,119,117,119,130,110,120,122,121,100,102,118,112,101,120,119,124,127,123,120,108,96,120,119,117,122,124,114,109,143,121,120,123,119,126,119,146,89,121,121,122,121,112,116,119,114,119,119,118,116,107,116,114,112,120,121,124,128,130,112,110,101,122,120,121,119,116,122,124,120,121,121,121,119,122,119,107,125,124,122,121,120,116,122,123
120,120,119,120,113,151,131,152,76,120,120,123,124,122,117,86,186,128,126,125,126,134,140,183,67,117,118,120,118,119,113,92,128,125,124,129,119,167,126,129,134,121,118,104,113,98,112,108,126,120,121,124,118,120,119,134,101,120,120,119,114,113,117,106,140,121,122,120,119,118,123,125,119,119,118,121,135,135,115,117,103,119,119,119,109,110,120,122,138,123,122,122,120,123,117,103,110,127,123,124,122,125,128,134,138,120,120,122,121,121,121,128,117,116,118,117,117,120,125,120,113,120,119,121,126,135,120,113
133,127,125,126,123,126,127,118,146,122,123,123,123,124,125,140,123,119,119,120,118,138,115,118,111,124,122,123,128,151,122,101,131,117,118,120,114,137,127,145,153,124,122,122,121,127,123,143,101,118,118,119,113,113,112,91,101,120,120,121,134,113,119,111,148,125,121,120,116,124,123,134,113,120,122,127,106,109,120,111,123,124,122,123,123,133,122,125,128,124,123,126,123,122,125,149,113,119,120,129,122,129,118,109,130,119,120,115,132,118,123,125,126,121,120,121,123,94,119,107,110,125,122,123,118,125,126,118
118,119,121,123,119,115,122,123,111,120,119,120,118,123,117,128,115,121,119,119,118,116,133,131,105,121,121,122,124,141,129,117,155,121,122,121,118,103,122,189,124,120,120,122,122,115,118,103,106,119,119,121,129,122,115,108,124,121,120,119,116,123,131,145,146,121,121,124,117,145,123,120,102,118,117,118,126,108,117,107,134,123,122,123,122,120,125,137,108,121,121,110,118,116,118,112,118,122,121,126,119,116,122,118,120,119,120,119,125,135,117,111,121,124,122,122,117,121,123,129,117,121,121,122,115,117,119,114
133,122,120,121,116,100,122,119,130,124,123,124,131,133,122,112,110,121,120,120,117,119,119,108,108,118,118,118,115,115,111,128,190,126,124,124,127,131,143,180,90,122,122,123,126,108,116,106,146,119,120,122,129,106,115,118,107,120,121,125,123,117,118,115,130,122,121,121,117,120,122,125,117,120,121,121,124,121,125,126,163,124,122,123,118,116,126,117,91,123,122,123,121,113,119,110,110,122,121,121,116,113,121,118,122,120,121,122,123,133,120,119,107,119,120,118,117,126,120,114,141,119,117,114,116,117,119,124
107,123,122,121,117,110,117,116,116,122,120,122,121,124,121,121,127,120,121,120,119,120,125,119,121,120,120,123,117,104,117,111,96,121,121,127,117,114,119,80,104,125,123,123,121,123,117,105,116,121,120,120,119,120,121,115,132,118,118,119,114,115,112,90,122,117,118,121,122,112,125,109,120,128,126,126,127,147,122,134,97,120,120,121,122,130,117,106,153,122,121,124,118,122,127,138,115,119,119,119,124,120,121,117,116,120,120,120,108,117,120,124,114,121,121,124,131,116,118,114,134,122,122,124,120,125,122,124
117,119,118,121,110,104,119,112,126,119,120,119,113,110,125,136,119,121,121,124,142,123,122,117,134,121,121,121,118,116,119,108,116,123,121,122,121,128,120,106,114,122,122,121,121,123,116,114,111,118,119,120,118,113,124,115,99,125,122,123,122,125,132,123,130,119,121,122,121,122,124,134,113,118,119,121,119,121,119,110,142,121,121,121,114,112,120,140,99,124,122,123,125,123,124,118,139,120,121,122,120,126,119,116,95,121,121,121,116,110,120,129,124,122,121,119,113,100,115,122,127,120,120,119,112,127,120,118
117,120,120,121,117,133,121,116,130,121,121,121,119,109,123,125,130,122,121,123,120,103,118,120,112,119,120,122,116,103,119,117,121,119,117,114,125,124,118,109,125,124,123,125,121,118,123,130,126,121,121,123,121,126,127,139,112,119,119,121,121,114,117,110,126,121,121,123,128,98,122,119,145,125,123,124,121,128,126,116,107,119,119,120,117,120,121,123,128,119,120,121,116,108,118,115,80,123,122,123,121,102,122,109,164,123,123,123,124,128,124,134,105,120,120,121,120,118,120,122,148,123,121,120,113,114,119,113
116,121,122,125,131,118,122,117,116,121,121,121,122,124,126,121,122,122,121,118,119,118,116,123,121,119,119,121,118,117,119,115,121,122,120,122,118,139,122,127,139,123,123,129,142,127,121,126,110,121,120,115,107,111,121,118,134,124,122,120,116,109,121,115,116,118,120,122,120,148,123,103,119,123,122,123,119,117,133,135,129,122,122,128,117,101,112,105,105,122,119,101,121,126,128,129,112,118,119,123,119,120,119,93,107,117,119,121,120,119,113,95,182,126,123,123,121,131,133,178,116,121,121,122,126,126,119,117
82,119,119,120,119,109,119,114,133,122,121,127,127,132,123,134,111,119,121,121,126,121,122,112,146,121,121,121,127,119,120,123,107,119,119,122,122,121,122,119,113,120,120,122,142,128,122,120,135,124,124,121,120,115,124,124,123,121,121,120,125,133,123,119,121,122,122,123,122,116,122,120,106,120,120,122,115,124,118,104,118,125,123,123,128,148,126,156,91,121,121,122,118,126,124,134,129,121,121,122,120,117,117,92,117,117,118,120,119,117,118,109,131,122,120,121,119,123,122,104,127,126,123,123,117,109,126,143
112,118,118,119,121,139,118,106,104,123,122,124,128,119,120,116,111,121,121,121,120,121,121,119,125,121,121,122,120,120,121,117,114,122,120,122,121,119,118,117,122,118,119,121,132,123,123,119,90,121,119,121,120,120,123,136,129,124,123,123,121,122,121,116,144,125,122,124,122,122,124,134,112,118,118,117,120,121,118,112,115,120,119,118,111,134,122,121,107,122,121,124,128,128,118,101,151,121,121,122,118,126,125,122,121,124,122,121,124,121,123,123,126,121,121,122,121,128,121,125,110,119,121,123,128,139,119,93
132,123,121,114,117,81,118,132,95,120,119,120,122,119,124,125,135,122,121,118,117,120,120,109,124,119,119,121,120,119,118,123,125,124,122,123,122,124,127,130,107,118,120,126,122,124,118,110,136,124,121,121,118,107,120,124,107,119,120,122,116,120,122,114,120,122,120,120,120,123,119,119,125,121,121,123,122,121,120,119,109,120,122,122,122,120,120,116,135,124,121,123,135,141,127,125,102,117,118,119,119,116,121,122,123,123,122,122,121,117,122,108,134,121,121,122,122,121,120,124,121,121,121,120,125,122,117,123
90,122,121,124,125,117,125,156,144,121,120,119,113,116,125,109,111,121,122,122,116,110,118,117,115,120,121,116,116,116,118,108,114,121,121,125,139,114,122,117,110,122,121,114,113,108,116,110,125,122,120,126,130,116,122,127,100,117,119,122,118,120,119,113,138,120,120,120,122,120,120,117,111,122,121,119,119,113,121,119,117,123,122,123,127,127,120,120,111,123,121,120,120,120,119,113,134,120,120,123,122,123,122,126,121,118,119,120,120,121,121,117,121,123,124,125,136,119,123,123,126,122,120,120,113,121,118,107
103,123,121,122,120,119,122,122,109,122,121,122,131,134,125,128,121,121,120,119,119,109,120,148,116,119,120,122,123,121,119,104,131,123,122,122,116,116,122,114,119,120,121,126,125,115,119,104,110,123,122,123,127,149,126,126,152,123,121,120,123,124,122,137,114,121,120,119,113,127,120,115,123,118,119,120,125,135,120,114,120,123,121,124,121,122,123,124,109,120,121,121,113,120,121,121,122,123,120,124,121,124,122,122,124,121,123,124,125,148,121,119,107,119,118,120,118,117,120,126,148,124,122,122,120,114,120,123
114,120,120,120,118,121,119,117,120,123,121,121,115,135,123,129,126,122,121,122,126,117,122,122,128,123,121,122,118,122,125,129,112,121,120,121,125,123,116,75,141,120,120,121,126,121,120,123,124,121,121,120,121,105,120,109,93,123,122,126,120,119,121,127,103,123,119,121,119,126,122,103,114,119,120,122,122,124,124,137,110,122,121,122,119,122,118,111,130,121,120,119,123,123,119,114,114,120,119,121,126,113,122,125,144,120,121,131,120,117,121,125,92,119,118,112,117,118,120,112,134,124,123,124,125,131,121,126
112,121,120,122,121,115,121,116,116,121,120,121,112,124,124,115,140,122,121,123,135,122,123,132,116,121,121,121,125,134,123,112,121,121,121,123,118,120,118,111,109,125,123,123,120,122,126,133,120,119,120,120,117,108,119,102,125,121,121,122,118,126,120,113,112,121,121,122,122,125,122,130,108,122,121,118,122,123,119,103,130,121,122,122,121,124,121,115,140,123,120,121,123,120,123,147,122,121,121,122,130,108,122,118,147,119,119,122,124,119,121,119,95,124,123,124,121,118,123,121,130,121,121,121,121,119,119,120
118,121,121,122,122,122,123,127,128,118,118,120,110,124,120,114,115,122,122,122,119,108,120,123,105,122,120,121,121,122,121,117,169,123,121,121,120,123,122,123,103,119,121,122,124,112,120,115,122,120,120,121,119,129,121,114,123,118,118,119,122,142,118,131,133,122,123,125,119,115,122,112,106,119,120,122,118,123,120,112,120,123,121,122,124,130,120,112,125,120,121,122,119,114,118,112,110,123,122,120,136,128,123,126,123,121,121,120,117,114,120,122,121,121,121,121,121,135,122,122,114,120,120,124,122,119,119,104
123,121,122,120,123,122,125,135,112,122,121,123,120,120,120,113,125,120,122,122,121,127,120,115,117,119,120,121,125,119,122,123,114,123,119,122,129,145,121,122,84,121,122,121,118,121,121,111,122,122,121,122,119,121,124,136,122,118,119,121,121,118,117,113,109,122,122,122,119,123,120,105,123,122,121,121,127,116,121,125,150,122,122,123,128,132,123,144,123,123,122,123,118,119,120,132,92,118,120,121,122,123,125,138,138,123,123,123,119,121,123,131,125,122,121,121,120,123,121,121,119,121,121,119,122,110,122,123
121,123,122,126,118,160,124,120,118,122,120,119,113,129,123,118,125,120,121,120,110,104,121,121,121,123,122,124,116,127,124,127,130,120,119,119,124,115,122,117,105,121,120,123,122,120,123,116,119,122,122,122,121,124,124,162,138,122,122,122,121,120,121,112,96,122,120,121,121,122,123,118,113,114,117,121,121,120,119,111,121,122,122,122,122,122,122,127,104,119,120,121,120,120,119,98,155,126,123,124,123,124,127,140,123,122,121,122,122,138,122,114,106,118,119,120,121,115,125,128,120,120,120,123,142,127,117,115
126,122,121,123,124,124,123,123,118,120,120,120,115,127,122,121,120,121,121,125,123,121,121,121,119,121,122,125,122,118,121,119,127,120,121,119,126,125,121,110,126,122,122,122,120,130,124,128,114,121,119,120,121,120,122,119,132,120,120,121,121,122,121,125,109,121,120,120,117,115,120,114,119,122,122,120,113,120,119,118,128,123,122,121,121,131,123,120,130,119,120,122,118,119,123,140,94,121,120,121,120,120,118,109,121,121,121,121,120,119,118,111,152,122,121,122,122,122,123,136,95,123,123,123,123,114,124,136
111,119,120,121,121,121,119,106,140,121,121,122,122,121,121,123,113,122,121,123,130,121,121,114,120,121,121,122,119,113,120,123,120,121,121,122,117,121,121,118,118,121,121,119,124,137,122,121,123,120,122,124,116,115,120,119,120,121,120,121,140,150,121,122,122,122,120,124,119,122,122,124,118,122,122,122,120,118,121,123,121,121,122,124,134,129,123,127,101,121,121,121,120,117,121,129,160,123,122,122,121,123,121,118,114,121,120,120,119,122,119,111,112,120,120,121,121,122,123,124,113,122,121,122,120,120,118,114
125,123,121,122,119,122,123,141,122,125,124,122,118,126,126,122,118,122,122,123,125,119,119,111,121,119,119,121,114,119,121,120,118,121,121,123,122,118,123,119,126,120,121,122,118,120,122,123,117,122,121,121,121,130,120,114,138,121,121,125,120,101,122,131,124,122,120,118,120,116,122,122,110,121,121,122,118,112,119,114,144,122,122,125,118,121,123,134,104,120,120,120,109,119,121,121,139,124,122,124,129,118,125,124,111,120,121,120,108,111,118,125,114,120,120,123,133,129,119,103,112,121,121,121,119,126,126,122
140,123,121,121,122,122,123,127,115,120,121,121,120,120,119,119,122,120,119,120,120,120,121,120,127,123,122,122,118,111,120,114,101,122,121,122,121,123,121,119,108,120,120,122,121,121,121,115,114,120,120,121,118,122,120,115,117,121,121,121,121,117,121,117,124,122,121,121,115,109,120,120,122,121,120,121,123,122,121,118,136,123,122,126,140,125,121,126,119,121,120,121,112,114,121,122,118,120,120,121,119,122,118,117,121,122,122,123,124,122,121,121,132,119,120,122,119,115,118,109,102,124,122,123,121,121,124,133
124,122,122,120,120,119,120,130,127,121,121,121,120,116,122,117,119,121,120,121,121,120,122,130,126,120,121,122,122,121,122,124,125,118,118,120,121,121,119,114,107,123,122,121,115,110,117,92,146,122,121,122,119,119,125,144,89,123,123,123,119,122,122,107,126,121,121,122,122,123,119,110,120,120,119,120,120,127,121,120,114,122,122,123,120,123,121,119,117,121,120,120,112,126,121,121,126,122,121,122,123,113,120,124,110,120,121,122,120,110,119,111,125,120,120,121,118,121,123,129,115,121,121,118,121,118,120,109
131,121,120,120,120,119,120,130,120,121,120,120,119,121,119,110,120,120,121,121,122,121,121,119,112,121,120,121,130,135,120,105,122,122,121,122,125,111,123,122,151,124,123,123,122,136,128,142,101,121,121,123,122,121,117,101,125,119,118,117,116,103,121,128,103,121,121,123,126,113,122,122,127,124,122,122,119,122,121,128,115,119,120,122,120,122,120,112,135,122,120,122,121,122,122,131,117,121,122,122,121,121,122,122,130,120,120,122,121,123,121,121,108,121,120,122,121,128,121,114,138,123,122,120,116,105,120,125
114,121,121,122,120,109,123,124,119,121,120,120,120,111,118,114,120,118,119,121,120,120,122,130,123,121,121,121,120,123,121,119,120,122,120,121,123,120,119,109,111,121,121,122,120,120,124,139,118,120,121,116,121,127,120,98,122,121,119,121,122,141,125,136,128,120,119,121,119,118,121,122,114,124,123,121,115,118,121,119,123,120,119,118,113,114,117,117,120,122,121,122,121,121,122,125,117,119,120,121,119,117,120,118,130,121,120,121,120,119,122,123,132,121,121,123,123,127,123,128,125,121,121,123,121,112,120,113
115,120,120,122,121,121,120,119,137,121,120,122,121,121,122,120,111,123,122,122,122,121,121,122,123,120,121,122,121,120,120,119,110,123,121,122,122,121,121,118,122,121,120,122,121,118,120,116,122,120,121,122,121,122,123,115,110,121,120,122,118,116,121,120,121,122,121,122,121,120,125,124,117,119,119,119,114,109,117,104,135,123,121,122,122,109,122,131,121,120,121,123,118,115,119,118,114,122,122,122,120,119,123,127,132,122,122,122,120,123,119,117,111,120,120,121,120,119,119,115,120,120,120,123,135,127,121,124
114,121,122,122,119,118,120,121,126,123,123,124,127,124,124,136,125,121,121,121,125,139,122,120,119,121,122,123,135,147,124,129,121,119,120,121,119,117,119,113,112,122,121,122,121,120,121,115,126,119,120,120,116,116,119,112,106,123,121,122,121,129,126,134,129,122,121,123,126,119,121,126,121,121,121,122,122,121,119,117,118,121,121,122,125,118,119,119,113,124,121,122,121,121,120,118,132,123,122,122,122,122,124,136,119,120,120,121,120,136,119,113,102,122,121,121,118,106,123,117,130,121,122,123,122,122,121,126
141,123,122,123,123,117,123,120,117,118,118,120,120,122,121,119,116,121,121,122,122,117,120,119,115,123,122,122,121,129,121,116,131,123,123,124,121,122,122,131,115,120,120,119,120,117,121,119,111,120,120,121,119,118,120,118,126,122,122,122,117,119,119,115,108,119,120,122,122,130,125,112,153,123,122,123,123,121,123,133,112,124,122,121,120,122,121,126,126,121,122,125,126,122,121,118,114,120,120,120,116,116,119,108,136,122,120,121,123,113,120,132,108,123,121,121,120,122,122,118,122,118,119,119,120,121,119,117
121,123,121,123,118,117,121,119,119,123,121,121,120,122,119,118,123,121,121,121,124,115,121,121,113,122,122,121,119,121,120,118,117,121,121,122,122,121,122,122,118,122,121,121,120,122,122,117,127,121,121,122,119,118,121,123,100,121,120,121,122,116,122,116,127,120,121,121,119,138,122,118,129,123,121,123,124,116,123,130,113,122,120,121,120,117,117,121,127,123,122,124,128,129,123,123,124,122,121,121,123,126,122,126,128,120,120,121,120,116,119,113,110,121,121,122,121,118,123,115,136,122,122,120,121,121,121,125
115,121,122,127,125,116,119,120,131,120,122,121,120,118,120,120,115,122,120,122,121,122,121,117,112,121,120,122,121,147,123,123,137,125,125,124,125,110,122,124,127,123,122,122,120,121,120,127,113,118,118,121,116,113,121,106,114,121,121,122,119,110,122,116,148,122,122,122,120,121,121,127,118,120,119,121,125,124,119,115,115,123,121,121,119,118,126,131,110,122,121,121,122,115,121,118,122,123,121,121,121,121,121,124,123,122,121,121,121,117,121,121,115,119,120,122,123,120,123,121,112,121,120,120,123,141,119,114
141,122,122,126,124,129,122,125,107,121,121,121,123,125,124,120,114,120,121,122,120,120,118,110,119,121,120,121,121,121,122,126,118,121,120,121,118,117,121,117,126,121,122,122,121,107,119,118,124,121,122,122,121,124,123,123,129,123,121,121,120,120,120,119,110,121,121,121,120,120,120,119,115,121,121,123,121,121,122,116,117,122,122,122,121,121,121,122,106,122,121,122,122,129,121,118,140,122,122,124,126,146,123,129,128,122,120,123,123,123,121,117,112,121,121,121,118,109,122,124,137,124,122,123,129,121,124,139
129,119,120,120,115,107,119,120,116,121,119,121,121,133,124,120,124,120,120,121,129,119,119,118,111,123,122,122,119,120,119,131,131,121,119,120,120,127,121,116,111,120,121,122,125,128,120,114,121,121,121,123,126,132,123,136,126,120,119,119,117,115,120,125,132,122,121,121,118,136,122,114,100,123,120,122,121,128,123,120,120,118,120,121,118,117,121,117,121,122,121,121,119,118,120,122,131,118,119,121,124,122,121,120,104,123,121,121,120,119,123,120,122,122,122,125,121,119,122,120,138,123,122,122,123,145,124,131
112,122,120,120,119,118,120,110,110,118,118,119,118,120,121,125,131,122,121,120,119,123,121,117,108,122,121,123,124,110,121,116,121,123,121,121,120,122,125,136,130,123,120,121,121,125,118,117,109,121,121,121,121,124,124,122,124,122,121,121,120,120,121,114,118,121,121,121,121,120,120,114,113,122,123,122,120,120,119,116,137,124,122,124,123,118,123,132,118,121,121,122,125,105,121,116,120,121,121,120,114,108,121,126,123,122,121,124,126,125,122,124,116,121,120,121,124,113,119,114,122,124,121,123,122,124,122,125
121,121,121,121,119,113,122,122,120,121,121,122,121,123,122,118,111,123,121,122,121,122,121,117,165,122,122,123,123,122,122,134,108,122,122,121,120,113,121,116,118,120,120,122,121,121,119,120,115,122,120,121,120,113,122,120,151,120,121,122,129,131,123,116,149,125,123,123,120,120,120,117,123,122,121,122,123,121,124,132,111,120,120,122,121,120,120,111,107,119,119,120,120,121,120,114,150,121,121,121,114,116,119,119,129,121,120,121,124,122,120,116,111,121,120,121,120,122,122,114,127,121,122,122,120,123,122,127
117,121,120,121,121,112,118,112,131,119,120,124,120,100,122,128,114,122,121,124,122,130,122,116,121,121,122,122,122,121,120,117,120,122,122,124,128,137,120,120,127,120,120,121,121,122,121,124,110,120,120,121,119,118,121,118,124,122,123,123,122,123,121,122,116,122,122,123,121,127,121,117,116,122,121,121,122,113,120,125,131,123,123,122,121,116,124,125,111,121,120,122,121,122,122,118,116,122,122,122,122,122,118,112,112,122,120,120,113,114,117,104,155,122,121,122,120,129,129,138,129,123,122,123,121,121,120,120
114,121,121,121,120,120,120,107,122,121,121,121,118,105,120,121,123,120,119,119,114,115,118,111,125,126,124,125,125,124,126,132,118,119,119,120,119,111,121,116,118,121,121,122,119,121,121,120,129,121,121,121,120,120,121,120,110,122,121,121,116,125,123,120,120,122,121,120,118,116,119,122,127,120,121,121,111,121,120,118,124,122,123,126,143,125,121,116,118,123,120,121,118,122,125,142,134,122,121,122,120,121,121,115,117,121,121,121,120,122,120,117,109,119,121,121,118,120,118,104,122,123,122,123,124,122,124,142
134,123,121,122,121,121,122,120,116,120,119,120,115,101,119,116,119,119,120,121,124,115,119,119,116,121,121,121,122,123,120,121,126,124,122,122,120,120,121,113,124,121,122,122,122,118,121,122,120,120,120,121,121,121,121,121,122,120,119,119,108,130,121,120,124,121,121,125,142,113,121,118,114,123,123,119,121,118,120,116,123,122,120,120,118,129,123,121,118,119,117,121,119,113,122,121,116,119,121,124,130,119,120,112,119,124,122,121,129,131,124,133,106,123,122,124,121,115,119,116,125,121,121,122,120,121,120,111
121,121,120,122,127,124,125,137,121,121,121,122,124,124,121,120,122,120,121,122,120,112,119,117,84,120,120,121,121,121,118,102,152,122,121,122,122,121,124,141,107,120,120,121,120,119,118,116,129,122,122,124,126,111,121,121,112,118,119,121,120,125,120,114,148,125,122,123,122,126,125,132,126,120,120,121,117,140,122,131,117,120,121,122,129,146,123,120,118,121,120,123,117,110,121,120,113,123,122,123,121,120,120,118,128,119,120,121,121,122,122,121,118,123,121,120,121,131,122,121,120,122,123,123,122,140,121,119
121,121,120,122,126,129,121,120,119,121,121,122,120,127,122,115,116,119,121,120,119,125,122,119,142,123,122,124,124,115,121,119,116,122,122,123,127,129,123,116,118,121,121,122,120,120,122,122,129,119,120,121,121,116,120,122,100,122,121,122,121,123,123,110,123,121,120,121,120,117,121,124,139,123,121,121,123,114,120,121,140,122,123,124,132,123,121,124,100,121,119,120,119,122,122,115,124,115,118,121,121,121,121,129,116,124,123,123,121,122,122,118,122,121,121,121,119,117,121,119,125,122,121,121,118,115,120,121
111,121,122,124,129,126,121,119,144,121,121,121,119,120,122,120,110,119,119,120,120,125,121,118,117,121,121,122,121,134,120,121,115,123,120,119,114,121,121,118,124,122,121,121,117,114,120,122,118,122,121,122,121,125,120,121,124,122,121,122,124,106,122,123,122,120,120,120,117,111,116,110,115,121,122,122,127,125,126,134,115,122,121,122,130,124,123,127,126,122,120,121,113,114,118,111,120,119,120,121,120,115,120,117,135,123,122,122,120,123,122,116,113,121,121,123,122,119,120,123,135,122,121,120,118,110,121,123
112,122,120,123,123,120,119,121,118,120,121,121,119,121,122,119,107,122,121,123,120,122,121,113,145,121,121,122,121,120,121,126,102,119,120,121,118,116,118,120,109,120,120,121,121,121,119,109,121,123,122,122,122,119,122,121,118,124,122,122,121,124,122,125,121,118,120,121,121,123,120,115,120,120,119,120,120,111,118,112,111,124,123,122,120,115,121,131,121,123,121,122,113,105,117,111,115,118,118,120,121,130,123,116,114,120,120,122,124,109,121,123,128,123,122,121,121,121,122,124,119,121,121,123,123,122,121,113
121,119,119,121,119,120,120,122,124,120,120,120,114,118,120,121,107,124,121,121,125,119,121,119,136,119,120,121,120,120,120,127,122,121,120,123,119,121,121,118,115,121,121,121,121,120,121,114,116,122,121,123,131,121,124,135,126,123,122,123,120,128,124,132,127,120,121,121,119,119,120,125,111,121,120,121,121,120,121,119,124,121,120,121,120,123,121,122,85,121,121,123,122,126,120,109,163,124,122,122,119,121,123,137,108,122,122,123,120,125,125,121,114,121,120,121,120,110,120,116,121,120,119,120,117,132,119,124
123,122,121,123,118,117,120,116,118,121,120,123,123,128,118,118,107,120,123,123,121,124,124,120,140,122,120,122,121,122,123,127,114,121,121,122,121,122,120,117,125,123,122,122,121,122,121,115,116,122,121,122,121,122,121,135,103,120,119,121,121,121,122,134,120,121,121,122,122,136,120,113,115,119,120,121,122,105,119,117,129,121,120,122,122,123,122,118,122,125,123,124,123,139,128,128,123,123,121,121,117,131,122,114,120,121,121,123,136,121,122,134,117,120,120,121,118,117,121,115,121,121,120,121,119,122,121,118
124,121,121,122,121,121,121,120,125,123,121,122,123,119,121,120,113,119,121,122,118,120,121,119,116,120,119,121,126,113,122,118,131,122,121,122,119,118,122,124,98,123,121,122,121,123,122,115,127,120,120,120,119,120,121,120,119,121,121,122,119,108,121,121,123,122,121,123,124,129,122,121,104,118,119,121,124,129,121,107,153,126,124,125,136,137,129,154,107,123,121,122,123,111,119,107,110,120,120,121,121,136,124,111,134,119,123,122,121,126,119,124,134,121,119,120,120,115,120,118,104,123,120,123,129,124,124,118
119,122,121,120,120,107,118,116,123,122,122,123,123,120,125,127,113,121,122,125,129,124,121,120,126,122,121,120,117,120,121,123,106,119,120,121,121,122,121,118,165,122,121,121,118,121,122,131,100,122,121,122,126,124,121,115,133,122,121,122,121,121,122,137,119,121,121,122,121,117,121,119,115,119,120,120,121,122,121,118,130,117,118,121,121,124,121,111,127,127,123,123,121,117,125,145,132,124,123,123,122,121,123,130,116,119,119,121,123,120,120,107,130,121,121,122,121,124,124,127,121,121,120,121,116,87,122,132
127,123,121,122,123,120,120,120,122,121,121,121,130,121,123,123,120,123,120,122,114,116,121,121,120,120,121,123,127,128,118,119,120,121,120,120,120,119,122,121,118,120,122,125,127,114,121,122,141,121,121,122,119,135,121,121,110,122,121,120,120,119,118,112,121,123,122,122,118,116,122,138,135,118,119,121,120,115,120,109,116,120,121,122,124,139,122,142,123,123,125,122,120,120,119,110,118,121,121,123,128,122,121,122,117,119,119,122,120,123,120,110,133,123,121,122,121,118,120,115,103,122,122,122,120,123,124,118
125,119,119,121,123,123,119,119,117,121,121,122,121,121,122,113,122,124,122,122,120,118,122,130,113,120,121,122,120,119,119,122,122,120,121,122,121,120,121,116,124,122,121,120,117,124,122,124,117,121,121,122,118,123,120,118,112,120,121,124,127,117,120,114,129,120,121,122,121,122,121,122,111,122,121,121,120,119,120,121,115,121,121,122,118,128,122,118,119,120,121,120,119,135,122,116,113,121,121,121,122,115,119,107,136,122,120,121,120,122,124,149,109,121,121,122,118,119,119,117,118,119,118,119,116,122,119,119
