0.0
0.0
0.7794644557547736
0.3940390322772166
0.20097472283577583
0.09570869475562291
0.03480987424296656
0.8768306688407191
1.0244210557375886
0.716480175996747
0.478610027433319
0.2963713623006319
0.9051900032249598
0.6313789248758315
0.7788805789374251
0.8893885213057879
2.0744711879855577
1.131323158516128
1.4730397521954013
1.3618004601128189
0.8940255063694063
0.5277146313509884
0.6233059578863941
0.34484697018503757
0.5103755035101586
0.6537710592163244
0.4031111041939299
0.5815291740286463
0.7274152550927362
0.8411730025138907
0.9256093676258539
0.9848259086594172
0.6547292960797904
0.39431309910281387
0.5672650089651083
-0.02653786639054201
0.25861239123302693
0.1288524121755199
0.4053814953597841
0.6272036435595767
0.7968636281210358
0.5514262565950472
0.35266456971122306
0.19916254023992963
0.8238026732641472
0.9429153195641551
1.7600210221037118
1.268335030915106
0.11977846517123569
0.7009965805382667
0.8024539013218089
0.5135150852160503
0.29030257830789574
1.9697508418365688
3.639465057853813
5.9871943019016
6.233986045322989
9.241232694697747
9.594971097789863
6.373385571666387
-1.0392215078479312
-1.2184095853688683
-9.266367536079546
-8.274412977551066
-10.836506285996048
-10.33431887469878
2.8624371425840653
0.2870214494929888
-13.347140870040175
-13.22147124881775
-1.3774412779174234
-14.16385959580957
-0.9027711510196053
-5.588890815375501
-7.531088274347038
5.714604135916995
14.0835069271565
23.473004064822018
13.19812292935667
20.85206782892118
17.273257479212052
6.744460142755258
7.6663869283052115
0.7708729513920582
2.935563780697028
7.444273365260386
8.469132194463633
3.707480780973544
2.5903338953249078
0.3634134652048231
-3.0736889931712312
-4.818172355821619
0.333731126732407
-2.4918947169936407
-6.846061430157536
-3.0788298311832287
-5.509458487100176
3.0019265456959277
-2.5202359503897886
-1.3882860660077645
-1.5899675781789193
-0.2751259563987569
1.8417811606882866
3.429150723606612
1.606600808492292
1.5647265836556028
3.336851762231852
4.298533511658053
1.2745286946121728
1.0790064634675447
-3.8436286348463065
-0.5943827246864135
2.4290106534079614
-0.012557043248230038
-2.3189170340321676
2.2002318148606275
1.3281847814330847
-0.882082131916663
8.824630810235599
17.05465765051953
12.059462711614822
7.420143211373397
4.769400959209432
3.0856833630284375
1.4883245722268192
0.7303211503672411
0.2732105980416678
-0.6949949035095888
-0.9617842799712413
-1.0537932587463388
-0.6594640905899776
-0.2786655420718509
-0.30535179279055663
0.07074890375993159
0.3820203105483857
0.6276319496748345
0.0749039648474058
0.009238732585589507
0.3357355940866272
0.22595054654973618
0.5073750718856387
0.355497582525537
0.6000553797775674
0.7862257710528804
0.9207431769715602
1.0119632305895958
1.4372874484751528
1.0131383490520036
0.6648680438953094
0.7608592557043211
0.840460812037618
0.5347043036035576
-0.06949532659107616
0.21250425662155537
0.4531051330000469
0.6484534348013897
0.7997117172068031
0.9111171008555331
0.6198247714222924
1.124052173923591
1.1432902133669354
0.7753640025894473
0.4814803985972686
0.6263777921769221
0.37885346142840237
0.5611723490294034
1.079826213093877
0.7429995715954201
0.8400073649351871
0.5452756813375337
0.6845688003508397
1.1662554106032657
0.4305372924122608
0.5897772329952071
-0.014470633318874104
-0.10555979191928198
0.2140079420155801
-5.42077398953142
-5.683659724790028
-16.776436149927495
-2.2894107069857625
-11.014646026115678
-10.419401272873788
-6.085062819866506
5.115532497544802
4.838621092889798
7.5975258660551335
6.132517614094862
9.513298838055578
6.394374767602489
9.288672405084412
1.8249231492583515
-0.37809921340072106
-1.9772212254208967
-3.4367203118300007
-16.93821144564071
-16.07476897851419
-7.514357327949311
-16.044358025064362
-17.745391720783967
-14.704503152034164
-12.830502588219186
-9.051493802968889
-4.2620440791532905
-1.3987638327948833
2.4428900752004274
-0.37948440469225275
2.315374690042889
9.76027809959194
9.374966766370367
11.285449119943458
6.2012154832342095
2.390704712146979
-0.9708395803963792
6.461908004860071
4.935705458062651
1.4473626613815291
8.318690706733483
9.240015479128411
3.5349230402809297
2.334886339261689
-0.0035221700752605667
-2.823936292682567
2.516868433501359
2.0080650468622303
1.6067544299799281
-2.381671179249904
-5.056793649636246
-3.6613117480992
-1.6725866115093737
0.3228706717545833
0.031366009132941075
2.714877982752109
4.012118759096394
2.6974592682950047
5.99794961296881
4.423484419701234
2.7093475961445472
1.7011486563961475
-0.913937797532274
-0.30873281327714674
-0.11190394935464942
0.10070341998519661
0.30637920397361307
0.122650672983557
-0.0030849079301603546
-0.0822183920082766
0.24304252636102683
0.1398421620578517
0.06357916280981663
0.010381587308036445
-0.024027643147009645
-0.04384153967745548
0.3158194051701798
0.22855374398365852
0.15530194017655172
0.46540380603480974
0.33496555246299736
0.5946896108537809
0.053488431647173984
0.3654880952177022
0.6128730641754874
0.7998098553653001
0.5650454844075781
0.37193968661900534
0.5891630759423038
0.7589423314537488
0.5165933123936522
0.691235290618347
0.8260221438952251
0.9249383869024941
0.6246633179718144
0.7541490571227157
0.486743039533075
0.2792516631799886
0.4947577897960094
0.6709539096402063
0.8083333760724465
0.5416055480171772
0.6988694963695197
0.4533924945657491
0.6310813713196348
0.7725713182470133
0.5112799762138378
0.6743855786902595
0.8032281578915355
0.5315165122748468
0.31774944634165464
0.5262347930059288
0.6954975849728217
0.4578635337320309
0.6401485251677228
0.7838196293156563
0.5230115443486136
0.6854900989313444
0.4443682129378595
0.2568372717849461
0.11803934714194173
0.021035468125433644
-0.04187578916314541
-2.659069298720627
-1.7067588796360869
-0.5217997563564132
-0.31072115643954057
-1.6275210695238347
0.670835777783356
-3.0644995280079232
-5.236357284417733
0.5466589821658321
4.00152567671954
0.31211851993859074
1.7467391875103677
-0.4867083076642942
2.9062889787215473
1.1082765684107576
0.015428818584094728
1.3774803775033462
-0.13506886146414732
1.63189454923273
3.7523890234298367
0.5562042544310888
-0.8764570102503272
-0.8435834876659899
0.35025602310768256
-0.5289520926863621
-1.5695770025505231
-2.708878685266944
-1.6872903844913942
2.8580345404335774
3.424992096431275
4.855211187381858
8.798577903843949
5.4336927753026245
7.800901513368256
7.706106580210408
10.460192420879466
6.949846545985121
5.945491445399567
5.525535074729104
3.375222893861708
2.486894721869241
0.4126494686789708
-0.35117509458425467
-1.1741715973966622
-3.89201945850919
-3.642661723290646
-3.2752654121885465
-2.4938550074549073
-1.802390026154918
-0.11659048203238331
-0.2794377877750533
-0.808184265868974
-0.8679988982355866
2.4019277226258655
-0.2505345653137039
-0.9071504473805126
-1.0398274048001903
-1.1204236906835585
1.0503807965177945
2.3659711349568133
3.3263535296038764
2.511435698355804
1.7974201410399269
1.9412104365832301
3.511403516507735
2.856988554436402
2.29629992202994
1.4706453745640586
1.2012341276198495
1.015162005100127
-0.2095714444724659
-0.756335127477793
-0.7521887024512267
-0.6898056643779416
-1.3329862916314528
-0.6859739164373182
0.9625122165873118
2.2445684731532696
1.7186812660207638
0.8814369192620874
0.5720693273034322
-0.0373788768163823
-0.12993089971043162
-0.17803656834922177
0.5431121815126719
0.7454543754415244
0.5247344748285832
0.7123843539750601
0.4850165804887246
0.3029390728491193
0.1639209453228903
-0.30555377355557234
0.08025557686254248
0.3969008348453402
0.27603643529600275
0.5464868268702108
0.38457358203917014
0.6204854283840823
0.06220166002986771
0.3627245390896391
0.23439734686974764
0.1347585305771804
0.061147906643023386
0.3785042769210734
0.25955051546454544
0.5325170119828484
0.37330219386774355
0.6118131649875801
0.4245456054216286
0.27258864923027815
0.1549975393869707
0.4371315796412243
0.6599695199782878
0.8276673746543026
0.5785437730641183
0.7439865749696528
0.5000882066943901
0.3063771880481616
0.5284277780085664
0.33739396108251507
0.1899839708658197
0.45051308734898265
0.6586483120094715
3.029286850428905
1.891907168538957
1.6814591445435783
1.4944549132657108
-4.193184793930488
0.28539822981549
-7.913296008054027
-12.733761558311977
10.34999493556529
-13.638927844105641
0.7146715974646511
-4.856400399308399
41.25110951196983
-12.157514682649328
34.04094600499117
24.68815246954402
24.326048598417536
10.690789564320848
50.39250647651444
23.472364624809245
14.287252052020444
-1.2853278170054985
7.276979616666571
5.639474084396663
1.3161634680438503
-2.4935162365804544
0.8012080517948439
-2.944792941826487
-32.9146876025927
-34.27191890093595
-30.177595292243375
8.876710195913482
-1.8711509245178704
40.06675529235035
30.726974507180312
21.782171281653195
11.505861416766496
2.492704624730946
2.5766378938886025
10.27535599335504
-0.20581515177484988
3.481942338512481
-3.0195096307003153
0.9315031497898598
-3.8852717053590267
-13.390450867455979
3.1233715241671263
-14.36051188524804
-6.528445965449096
-22.60163663219518
4.603081998677286
-10.110796833542253
-0.39091971199016307
-2.3792163579115058
-9.611350406668253
10.567145892613517
0.7615349638233795
45.4847341345228
25.89098931292119
41.553340285712814
32.050673248012224
19.477955721764985
0.9570294667057446
-6.190144320399635
-6.660185959199129
-7.823032838066694
-7.067879859487058
-6.029561252869842
-4.89497616954999
-3.4210791947618238
-2.1393098630008587
-1.4493629409836835
-0.5299442022180436
0.17205955642778564
0.31234208256808904
0.7447734346040922
0.6693660786275462
0.5685757302418879
0.828455362078609
0.6374647705927328
0.8349261561280206
0.9727022201546663
0.6931648016280755
0.8302997011528481
0.9303584235599653
0.9990602559641799
0.6738210435397174
0.7836407371291485
0.5014760064570352
0.2834966405718845
0.49204426984392463
0.6640629983178615
0.4306664505935591
0.617787587201994
0.7662885100736825
0.8786087841962306
0.9591632829690157
1.0132631341959553
0.6776769975709203
0.4119718714386767
0.5801815420116314
0.7197313948834816
0.8300999431172732
0.5445902839759389
0.6897598518937604
0.8060575997980004
0.8948877049633243
1.3280053810439272
1.2861457216772496
0.4996107866638755
0.2525948333123209
0.07658028887675318
-0.04062481256614713
0.2572961434063582
0.1357031612405492
0.7855300931149081
0.5548981803168893
0.7338938054366764
1.2367260214410323
0.8774444427365032
0.5809074863773633
0.3475434890810223
0.5412897310966425
0.7000513303043205
0.45542591310668556
0.2648045523106453
-0.24526372771531837
-0.6272445874467543
-0.16063913933579232
-0.8799047130391168
-1.7916706740960167
-2.094602849312081
3.6206492290469914
5.103969852429663
3.5308007798445
6.601877121042687
4.465908220534178
6.001323249699741
14.871869240274314
8.690500635237894
13.94409653364292
4.6281411025223385
5.009159120411127
2.0897071843730086
-4.502567033692068
-6.100804468445855
-5.916270111605474
1.8851229637944895
-1.4951825101343332
-6.726861640060546
-1.4698794826176886
-3.507399309097994
-4.333846403721658
3.939947743145378
3.3548681955161763
0.8755061121544578
13.222176276996318
6.445508957606796
2.7040553438962363
-2.1135347270506273
10.071943937139505
1.1522437334153661
4.0333533878346675
0.4273382069730638
7.963341688449084
4.987739309655206
2.9226744280759696
2.7820387228242853
-1.344977534777327
4.000588669205609
4.562416021849331
1.6336970790232583
-3.9810467676428596
-7.87362845829892
-8.815499099303464
-6.685059988591638
-4.071548861745835
-6.363422472237389
-9.574004046923687
-7.159635086430228
-6.989426942179755
-8.646788483696556
-9.511392275111403
-7.515246931786557
-2.209430034969925
0.3971973524753556
0.40617185906790887
4.276203772937931
7.0947384037802035
5.707324403217008
4.3779540213611465
2.084793964467338
-1.241668163779159
-2.6931801573505183
-2.607314414699708
-2.425396621758665
-1.091235310195302
-0.7407186774976429
0.2767938457115613
0.3187086550041506
0.31984697223138703
0.29515208564088413
0.25611048171976425
0.5797999477303332
0.8175366469456409
0.9821207565599578
0.7187592725971899
0.864072646256146
0.9666111136480287
1.0339979764252851
0.7051526202528371
0.4415199587132321
0.24000396506634056
0.0937145796638279
-0.006086030710860056
0.3000783314842609
0.1802902551477082
-0.278344896389207
-0.256540555488857
-0.2223916815632014
0.18552344673231708
0.13907401142531273
0.09869968537790322
0.43405490016897086
0.6907365560606287
1.2460420985956808
0.5504611503366886
0.7255116562427151
0.8578329813689265
0.5839788757283186
0.7333771238888033
0.4801925854562697
0.6508861806745393
0.7863863143315271
1.2575884246641647
1.2453669878565516
0.8494694425076967
0.16335279625263044
0.006449748902041423
-0.46180405144961373
-0.06280901317926058
0.27352778342766476
0.174897559128939
-0.26995187229451745
0.1285750016903745
0.4494097745844958
-0.04166812661592789
0.309535737951086
0.5861165651956503
0.42492475760319687
0.2893996555302064
0.18084647774584553
1.9413776097313578
2.189789799516655
1.5941634469490453
1.460157993805361
2.8137416996024482
0.892497046650294
-0.26100409128282376
2.5594653539008565
-0.7579488926776596
4.762856616089163
3.5313173085482097
4.685365683084901
3.3062691137651594
-0.776564216426582
-3.5593665018752234
-1.1653286770983726
-5.063052648761034
-4.308597995932915
-7.256277828777566
-0.9348622704647562
-1.815303830549671
-8.07501857666934
-6.25855628052047
-6.168723966511886
-5.65046404858163
-10.353749462369272
-11.718415064250623
-9.652830261578472
-7.162278621979921
-6.285847939722642
-0.46876981741227297
-0.836946899719053
-3.9015073435610095
-3.4507285847997142
-2.0242741538567386
0.1431641667485435
-0.8423157131170371
-2.4527298525695835
-1.9078241798879931
-1.860372646998853
-2.2101962590289346
-1.3877398908646192
-0.389562396875759
2.563126504892132
7.360536417912604
7.598570728777954
6.067629804967929
7.279280025849235
4.414613522771299
-0.8530547646746385
-1.2185159336135094
-2.0897916671937913
-4.107450719686318
-2.950795502892268
-2.275358040893527
-2.774214829368992
-2.3697171999359203
-4.217638807510367
-3.393212533188507
-3.0512739056044578
-2.7518741282575956
-2.134432306355201
-1.6544962132477992
-0.5621302378340389
0.9889874098100184
0.28458331707466633
0.02704750014303059
0.1515435783866683
0.5867850151274585
0.8943910026834867
0.7282917809912945
0.9342507465443799
1.0694995889609291
0.7806756414238971
0.5363083431984691
0.7081096913671292
0.4710761673680438
0.2840041779418827
0.1433374424348878
0.04314369095307363
-0.023537990981642193
0.30492145474349663
0.19882375875138775
0.11604523663817318
0.05456561708479334
0.011417165431405255
-0.016730197473682065
-0.03317071154899065
0.6964583313597892
0.8919700935446487
1.0239828931810713
0.7367325280122334
0.49685016507282415
0.6746180738781259
0.812698695138765
0.546066668212718
0.33435034889608195
0.17412504231244452
0.42782374902866066
0.6334496294500845
0.4237021304904137
0.6263065876513079
0.41521917494797767
0.6176517415632289
0.4071434849808229
0.24189704797476425
0.11835471559853582
0.3996431322770698
0.6249258728984854
0.4282652765291384
0.6387691088127653
0.8003647559764895
0.5495580835696855
0.7162414050625319
0.10664440448085732
0.0025550381932460528
-0.06336101713791444
-0.09994036105612784
0.2535936729855093
0.1674041702477863
0.09969041483169604
