121,121,120,122,122,122,122,121,120,117,120,122,121,121,120,119,120,121,121,122,122,121,120,120,120,123,120,122,121,121,121,125,120,123,121,122,121,121,121,119,119,116,121,122,121,120,120,121,120,120,121,122,121,121,121,118,119,127,120,122,121,121,122,121,121,123,120,122,121,121,122,123,121,118,121,122,121,120,120,120,119,122,122,122,121,120,120,120,119,123,121,122,121,121,122,119,121,122,120,121,121,120,121,121,122,120,121,122,121,122,121,118,120,117,120,122,122,121,121,121,120,126,121,122,121,121,120,120
121,122,121,121,121,121,121,119,120,119,121,122,121,122,121,121,119,121,121,122,121,121,121,121,120,128,122,122,121,120,121,117,121,124,121,122,121,121,122,121,121,118,121,122,120,120,120,120,120,121,121,121,121,121,121,120,119,122,121,121,120,121,122,121,120,125,121,122,121,122,121,120,123,120,120,121,121,121,121,119,120,121,121,122,121,122,122,120,117,121,121,122,121,121,122,120,121,119,120,121,121,121,121,122,121,120,122,121,120,121,121,123,122,118,121,122,121,120,120,121,120,122,120,122,121,121,121,119
119,121,120,122,121,122,122,121,121,119,121,122,121,121,121,119,119,121,122,121,120,121,121,118,120,122,120,121,121,121,122,123,120,120,120,122,121,121,122,121,122,122,121,122,120,120,121,119,120,119,122,122,120,120,121,119,117,119,120,122,121,121,122,122,122,124,120,121,121,121,121,122,121,117,120,121,121,121,121,120,121,120,120,121,121,121,122,121,121,129,122,122,121,121,122,121,120,125,121,121,120,120,121,121,122,119,121,122,121,121,122,118,118,118,120,122,121,122,123,122,120,121,121,122,121,121,121,121
121,123,121,121,121,121,121,122,122,119,121,122,121,120,121,120,120,121,121,122,121,121,120,120,121,123,121,122,121,121,121,121,118,123,121,122,121,120,121,121,122,118,122,122,121,120,121,119,120,120,121,122,122,121,121,120,120,127,121,122,120,121,122,123,122,124,122,122,121,120,121,122,119,119,120,122,121,121,120,120,119,122,121,122,121,120,120,117,120,124,121,122,121,121,122,121,121,123,121,122,122,122,122,121,122,116,121,122,121,120,120,120,121,119,120,121,121,121,121,120,121,122,121,122,121,120,122,120
119,120,120,121,121,120,121,117,121,124,121,121,120,121,121,120,123,118,121,121,120,121,121,119,119,122,120,121,121,121,122,119,121,124,121,122,121,120,121,120,121,119,121,121,120,121,122,119,119,125,121,122,121,121,121,121,120,123,121,122,120,121,121,122,120,124,120,121,121,121,121,120,123,119,121,122,122,122,122,120,121,117,121,122,121,120,121,120,120,126,120,121,121,121,122,121,121,123,121,122,122,120,121,120,124,117,121,121,122,122,121,120,119,120,121,122,121,121,122,122,121,122,122,122,121,120,121,118
121,122,122,122,121,121,123,126,120,118,121,122,121,121,121,120,119,125,122,121,120,121,121,119,120,125,120,121,121,120,121,120,122,123,121,122,121,121,121,119,119,120,121,122,122,121,121,118,120,121,121,122,121,122,122,117,119,124,121,122,122,120,120,121,120,126,120,122,121,120,121,123,123,120,121,122,121,121,121,119,121,114,121,122,121,122,121,121,120,125,121,122,121,120,121,125,119,119,121,122,121,121,122,120,122,118,120,122,121,121,121,118,120,114,121,122,122,122,121,119,119,123,121,122,121,121,121,119
121,124,121,122,121,121,121,121,120,121,120,122,121,121,122,120,121,120,121,122,121,121,122,119,123,121,121,122,122,122,121,120,120,122,120,121,121,121,121,122,121,123,121,121,121,121,121,120,120,122,120,121,121,121,122,121,121,124,121,122,122,122,122,123,120,121,121,122,121,121,121,120,120,121,121,122,121,120,120,120,120,120,121,122,121,121,121,120,119,123,121,122,121,120,121,120,120,122,121,122,122,121,121,120,123,120,122,121,120,120,121,118,120,123,121,122,120,121,121,120,120,118,120,122,121,121,121,121
121,122,120,121,121,121,122,123,121,125,121,123,121,120,121,120,120,124,121,122,122,121,120,119,120,118,122,122,120,121,122,122,121,121,122,122,121,121,121,120,122,124,121,121,120,121,120,122,122,122,122,122,120,120,121,119,120,126,121,122,121,120,121,122,123,119,122,123,121,121,122,122,121,121,120,121,121,121,121,118,121,123,121,122,121,121,120,120,119,118,121,122,121,120,122,122,120,124,121,122,121,120,121,120,121,119,120,121,121,121,122,119,121,122,121,122,121,120,121,120,119,125,121,121,121,121,122,122
121,123,122,122,121,120,121,122,121,119,121,121,120,121,121,117,121,119,120,121,121,121,122,120,119,123,121,121,120,121,121,122,120,123,120,121,121,121,121,121,120,117,121,122,121,121,122,121,121,125,120,122,121,121,122,120,120,122,121,122,122,121,121,120,122,119,121,122,121,121,120,119,122,118,121,122,122,122,121,117,121,123,121,122,121,121,120,117,120,125,121,122,121,120,121,122,119,123,121,122,121,121,121,119,120,118,121,122,122,120,120,118,121,118,121,122,122,121,121,118,119,125,121,122,121,121,122,122
121,122,120,121,121,121,121,129,122,119,120,121,121,121,121,119,122,120,121,121,121,121,122,121,120,126,121,121,121,121,121,122,120,123,120,122,121,121,122,122,120,120,121,121,121,121,122,119,119,122,121,123,122,121,121,120,121,125,120,121,121,121,122,120,120,119,119,121,121,121,121,122,121,119,122,122,121,120,120,119,123,119,121,122,121,121,121,119,120,127,122,123,121,121,122,123,120,127,121,122,120,120,120,122,120,119,120,121,121,121,121,118,119,117,121,122,122,121,122,118,122,123,121,122,121,121,122,124
122,126,120,121,121,121,122,129,122,116,121,122,121,121,121,119,120,124,121,122,121,120,121,114,120,122,121,122,121,121,121,119,121,124,120,121,121,121,122,122,123,120,121,121,120,120,121,120,121,120,122,122,121,121,121,119,119,120,121,122,121,120,121,123,120,124,121,122,122,121,120,123,120,118,121,122,121,121,121,120,121,123,121,121,121,121,121,121,120,123,121,122,121,121,121,123,122,121,121,121,120,121,122,121,119,118,121,122,121,121,120,119,120,119,120,122,121,121,121,119,122,125,121,122,121,121,122,120
123,125,121,122,122,122,122,120,119,122,121,122,121,121,122,118,121,124,121,122,121,121,122,120,121,122,120,121,121,121,122,123,120,122,121,122,121,120,121,121,120,121,121,121,120,121,121,119,119,123,121,122,121,121,121,119,118,124,120,122,121,121,122,122,119,122,122,122,121,120,120,121,120,122,121,122,121,121,122,120,119,120,121,121,121,121,121,121,121,127,121,122,120,121,121,121,120,123,121,122,121,120,121,120,120,116,120,122,121,121,121,118,121,121,122,122,121,120,121,120,122,122,122,122,121,121,122,121
118,121,120,122,121,121,121,122,121,120,121,122,122,122,122,120,121,124,121,122,121,121,122,119,121,121,120,121,121,120,121,121,119,120,122,122,121,121,121,121,122,122,122,121,122,122,121,123,120,122,121,122,121,120,121,120,120,124,121,121,120,120,121,121,120,117,121,122,121,121,122,120,121,118,121,122,122,121,121,120,123,124,121,122,121,122,122,118,118,123,120,122,121,121,122,121,121,120,122,121,120,120,121,119,121,120,121,121,121,121,121,120,121,119,121,122,122,121,122,121,120,126,121,122,120,121,121,118
119,124,121,122,121,121,122,120,123,115,121,121,120,120,121,120,122,122,121,122,122,121,120,118,119,123,121,121,120,120,121,123,119,120,121,121,120,121,121,119,121,117,121,122,122,121,120,120,120,124,122,122,121,120,121,120,119,121,121,122,121,120,121,121,122,127,120,121,121,121,122,123,121,120,121,121,121,121,121,120,121,121,122,122,120,120,121,120,122,128,121,122,122,121,122,121,120,117,121,122,122,121,120,111,121,121,121,122,122,121,120,117,120,120,120,122,121,121,122,119,121,125,121,122,122,121,122,122
119,126,121,122,121,121,121,117,122,118,121,122,121,121,120,119,119,123,121,122,120,120,121,121,121,124,121,122,120,121,120,123,121,121,121,122,121,120,121,120,121,118,120,121,121,121,121,119,120,119,120,121,121,121,121,125,120,124,121,122,120,121,122,119,118,119,121,122,121,121,120,118,122,120,121,122,121,121,120,121,121,121,121,122,121,121,120,120,120,127,121,122,122,121,120,121,120,118,121,121,120,120,121,122,120,125,120,122,121,120,120,117,121,120,121,121,121,121,121,122,119,117,121,122,121,121,122,123
122,120,121,122,121,122,122,118,120,119,121,121,121,121,123,121,120,121,121,122,122,121,122,119,119,124,120,122,121,121,121,120,119,119,120,122,121,121,121,122,121,121,121,122,122,121,120,120,123,121,122,122,120,121,121,121,121,121,121,122,122,120,121,120,119,121,120,122,121,121,121,122,119,117,121,123,121,121,120,120,122,120,121,122,121,121,120,120,120,124,120,121,121,121,122,121,120,120,121,121,120,121,121,120,122,117,122,122,121,121,121,121,120,126,121,121,121,121,122,120,120,129,121,121,121,121,122,122
119,119,121,122,121,121,122,119,123,119,121,122,121,122,121,121,122,122,121,121,121,121,122,121,120,125,121,122,121,121,122,119,121,123,121,122,121,121,121,122,122,119,121,122,121,120,122,119,119,118,120,121,121,121,121,121,120,123,120,122,122,121,122,122,121,121,122,121,120,120,121,121,120,122,121,122,122,122,121,119,122,117,121,122,122,121,121,119,120,119,121,122,121,120,120,120,121,124,121,122,121,120,121,120,121,122,121,122,122,121,120,120,119,117,121,122,121,121,122,120,120,125,120,121,121,121,121,120
120,124,121,122,121,120,121,122,121,116,121,122,121,121,121,117,121,123,121,122,121,121,120,119,119,127,121,122,122,121,121,121,119,121,121,122,121,121,121,120,121,116,121,122,122,122,120,119,122,120,121,121,121,121,122,121,120,124,121,122,120,120,121,122,121,126,120,122,122,122,121,119,119,119,121,122,121,122,121,118,122,123,120,121,121,121,122,121,121,123,122,123,121,121,122,121,119,122,121,122,121,121,121,119,121,121,122,122,120,121,121,120,121,122,121,122,121,121,122,119,119,122,120,122,121,121,121,124
120,117,121,121,121,121,122,121,121,119,121,121,121,121,122,119,120,122,121,121,121,121,121,120,122,123,122,122,121,121,121,120,119,121,121,121,121,121,122,121,120,119,120,122,121,121,121,119,121,119,121,121,121,121,121,122,120,124,121,122,120,120,121,122,119,123,121,122,122,121,120,119,121,121,120,121,121,121,121,119,119,119,121,121,122,122,122,121,121,120,120,122,121,121,122,124,121,129,122,123,121,121,121,121,121,116,122,122,121,120,120,119,120,119,121,122,122,121,122,118,120,123,120,122,122,122,123,120
121,127,121,122,121,122,121,127,119,118,120,122,121,121,122,119,121,123,121,122,121,120,121,118,120,121,120,121,121,121,121,118,120,126,121,122,121,121,122,122,122,122,122,122,121,120,120,119,120,123,121,122,121,122,122,118,119,120,121,121,120,120,121,120,120,123,120,121,121,121,121,121,123,120,121,122,121,122,122,118,122,120,121,122,121,120,120,119,120,126,120,121,121,121,121,120,120,118,120,122,121,121,121,123,123,117,121,121,122,122,122,119,120,120,121,122,121,121,121,121,119,125,121,122,121,121,121,119
123,121,120,120,121,121,121,123,119,113,121,122,121,122,121,117,120,119,121,122,121,121,122,119,119,126,121,122,122,121,121,120,119,125,120,122,121,121,121,120,123,113,120,121,121,121,121,118,120,124,121,122,121,121,121,122,120,122,121,121,121,121,121,122,118,122,121,122,122,121,120,119,122,118,121,122,121,121,121,119,121,122,122,123,121,122,122,120,120,117,120,121,121,121,122,118,121,123,121,122,120,120,121,121,121,117,121,121,121,121,121,120,120,122,121,122,122,121,121,120,120,120,121,122,122,121,121,122
119,123,121,122,122,121,120,120,121,118,121,122,121,120,121,120,122,117,121,122,121,121,121,121,121,125,121,122,122,122,122,121,119,119,120,121,121,121,122,119,120,121,121,122,121,121,121,119,120,117,120,121,121,121,122,122,121,122,121,122,121,121,122,121,120,124,121,122,121,120,120,122,122,120,121,122,122,121,123,118,120,121,121,122,121,121,121,120,120,123,121,122,121,121,121,122,120,127,121,122,122,121,121,119,124,115,121,122,120,120,121,121,120,122,121,122,121,120,120,119,120,125,121,122,121,121,122,122
119,121,121,122,121,121,120,120,120,119,121,122,121,121,121,120,122,119,121,122,122,121,120,118,120,123,121,122,122,121,121,119,123,121,121,123,122,121,122,123,121,120,120,121,121,122,122,119,121,126,121,122,121,120,120,120,120,125,121,122,122,121,121,121,120,119,120,122,121,121,122,119,121,121,120,121,121,121,122,122,122,125,121,121,121,121,121,121,120,123,121,121,121,121,121,121,119,120,121,122,122,121,120,120,120,117,121,122,121,121,120,121,121,123,121,121,121,121,124,120,120,123,121,122,121,121,122,122
121,121,121,122,121,120,121,120,121,119,121,122,122,121,121,119,122,120,122,121,121,121,121,119,118,126,120,122,122,121,121,121,120,123,121,122,122,121,121,121,122,119,121,122,121,121,121,120,118,123,121,122,121,121,121,120,120,122,121,122,122,122,122,119,120,120,121,122,121,121,121,120,121,113,122,122,120,121,121,120,124,122,121,122,122,121,121,120,119,123,121,121,120,121,121,121,121,125,121,121,120,121,121,121,122,118,121,121,121,121,121,119,122,120,121,122,122,122,121,121,118,125,121,122,121,121,122,121
119,128,120,121,120,121,121,124,121,119,120,122,121,121,120,121,120,120,121,122,121,121,122,121,118,122,120,121,121,121,122,122,120,123,120,121,121,121,122,120,122,118,121,122,121,121,122,123,120,117,121,122,121,120,121,118,118,122,121,121,120,121,121,121,121,122,121,121,120,121,121,122,121,119,121,122,122,121,120,118,121,120,122,121,121,121,121,121,122,126,121,122,122,121,121,121,120,119,121,122,121,120,121,118,121,117,121,122,121,121,122,118,119,118,121,122,121,121,122,123,120,130,122,122,122,121,122,121
119,123,121,122,121,121,121,125,119,117,120,121,121,121,123,119,118,120,121,122,121,121,122,120,119,122,121,122,121,121,121,118,121,118,120,122,121,122,121,119,119,111,120,122,121,121,121,120,122,122,120,121,121,121,121,119,119,129,120,121,121,121,121,120,118,126,120,122,121,121,122,121,121,118,121,122,121,121,121,122,122,122,121,122,121,120,121,119,119,124,120,122,121,121,122,122,119,121,122,122,122,121,121,119,121,121,121,121,120,121,121,119,121,115,120,122,121,121,121,120,120,131,120,122,121,121,121,123
123,124,121,122,122,121,122,122,121,119,121,122,121,121,120,120,119,120,122,122,120,120,120,119,120,122,120,121,122,121,122,122,119,124,120,122,121,121,121,119,121,118,120,121,121,121,122,121,121,121,120,121,122,122,121,121,120,125,121,122,121,121,121,118,120,125,121,121,121,121,122,120,119,118,121,122,121,121,120,119,119,120,121,121,121,121,121,120,120,123,121,122,122,121,121,123,119,124,121,122,121,120,122,122,120,118,121,122,121,121,120,118,121,124,120,122,121,121,122,119,120,123,121,122,121,121,122,123
121,122,121,121,121,121,121,121,122,115,121,122,121,122,122,118,119,118,120,121,121,121,122,122,120,123,121,122,121,122,122,120,121,123,121,121,120,120,121,121,122,122,122,123,121,121,122,119,118,122,120,121,120,121,121,121,119,125,120,122,121,121,122,121,122,123,121,122,121,121,120,119,122,118,122,121,121,121,122,121,124,122,121,122,122,122,121,119,119,122,121,122,121,122,121,120,120,121,121,122,121,121,122,121,122,122,121,122,121,121,121,123,123,121,122,122,122,121,122,119,118,123,121,122,122,122,121,121
120,124,121,121,121,121,122,121,120,120,121,122,121,120,121,119,119,124,121,121,121,120,121,120,120,122,121,122,120,121,121,120,121,126,121,122,121,120,122,121,121,120,120,122,121,121,123,121,120,126,121,122,121,121,121,119,118,122,120,121,121,121,121,121,121,122,122,122,122,121,120,123,120,118,121,121,120,121,121,116,121,124,121,122,122,121,121,122,121,122,122,123,122,121,121,121,121,123,120,122,121,120,121,123,119,122,120,122,121,121,121,119,123,119,120,121,121,121,121,120,119,123,121,122,122,120,121,118
120,121,122,122,121,120,121,122,123,119,121,121,120,121,121,122,120,125,121,122,121,120,120,120,121,120,121,122,122,122,122,120,119,124,120,121,121,121,121,122,121,120,121,121,121,121,122,121,119,122,121,122,121,121,122,120,119,122,121,122,121,120,121,123,121,123,121,123,122,121,121,120,120,119,120,121,121,121,121,120,121,119,121,122,121,121,120,119,120,123,120,121,121,121,121,121,123,123,121,122,122,121,121,121,122,124,121,122,121,122,122,121,121,124,121,122,120,120,121,120,119,126,120,122,121,121,121,120
119,122,121,122,121,121,121,113,118,116,121,122,121,121,121,123,119,118,121,122,121,120,121,118,119,124,121,122,122,121,121,119,119,122,121,122,122,121,120,120,120,114,121,122,121,121,120,119,121,121,121,122,121,120,121,119,120,126,121,122,121,121,121,121,119,122,121,122,121,121,121,119,121,118,121,122,122,122,121,120,119,123,120,121,120,121,121,122,120,122,121,122,121,121,121,118,119,119,121,122,121,120,120,119,123,121,121,122,122,121,121,120,120,120,121,122,122,121,121,120,119,126,120,122,122,120,121,121
120,121,120,122,121,121,121,119,123,121,122,122,121,122,121,119,121,118,121,122,122,122,121,119,119,126,120,122,122,122,122,122,120,119,121,122,120,120,121,120,122,120,120,121,121,121,121,122,119,119,121,122,121,121,122,121,119,123,121,122,122,120,120,118,120,115,121,122,121,120,121,121,121,117,121,122,121,121,122,120,122,124,121,122,122,121,121,120,120,124,121,122,121,121,121,122,119,121,121,121,120,121,121,120,121,120,121,122,122,121,121,120,121,119,122,122,121,120,121,119,120,124,121,122,121,121,121,119
121,121,121,121,120,121,121,123,121,116,122,122,120,121,121,120,121,124,121,121,121,121,121,120,119,120,121,122,121,120,121,120,123,126,121,121,120,121,121,121,122,119,121,122,121,121,122,119,120,123,121,122,122,121,120,121,119,123,120,121,121,121,122,120,121,122,120,121,121,121,121,120,121,120,122,123,121,120,121,119,120,121,121,122,121,122,121,119,121,124,122,121,121,121,122,122,121,123,122,121,120,121,121,119,119,119,120,122,121,121,121,119,122,122,121,122,121,120,121,122,119,124,120,121,121,121,122,121
118,123,121,121,121,121,122,122,120,119,121,122,120,121,121,118,120,118,121,122,121,121,120,120,121,122,120,122,122,121,122,121,119,125,120,121,120,121,121,122,121,118,121,122,122,121,120,118,120,120,121,122,121,121,120,121,120,118,121,121,121,121,122,123,120,120,121,121,121,122,121,121,121,118,121,123,121,121,121,121,119,122,121,121,120,121,122,123,121,124,120,122,122,121,122,120,122,117,121,122,121,121,122,120,122,123,121,122,122,121,121,122,120,124,121,122,122,121,121,119,120,121,121,122,121,121,121,120
122,119,121,122,122,121,121,118,121,120,121,121,121,121,122,119,122,123,121,122,121,122,121,121,119,123,121,122,121,120,121,119,121,119,121,122,121,121,121,119,119,116,120,122,121,121,121,122,121,121,121,122,120,120,121,120,122,124,120,122,121,121,122,121,120,125,121,122,121,121,123,117,121,118,120,122,121,122,122,121,121,125,121,122,122,121,121,120,119,123,121,121,120,121,121,120,120,120,121,122,121,121,121,119,123,118,121,123,122,121,122,119,122,121,121,122,121,120,121,119,119,122,120,122,121,121,122,121
118,120,122,122,121,120,120,114,121,122,121,122,121,121,121,120,123,124,121,122,120,120,121,120,119,119,119,121,121,121,122,119,121,122,121,122,122,121,121,120,120,119,121,121,120,120,121,120,121,118,121,122,121,121,122,122,120,122,120,121,121,121,121,122,122,125,121,122,122,121,121,117,119,118,121,122,121,122,121,119,121,121,122,122,122,122,121,120,121,125,120,121,121,121,121,123,120,122,121,122,121,122,122,120,120,117,121,122,121,121,121,116,120,119,121,122,122,121,120,118,118,117,121,122,121,121,122,121
122,123,120,121,121,121,122,122,120,118,121,122,120,121,122,122,122,121,121,122,121,121,121,118,120,120,121,121,121,121,121,122,120,125,121,122,121,120,121,119,121,118,120,121,120,121,120,121,122,120,121,122,121,121,120,120,122,123,121,122,122,121,121,120,121,119,120,122,121,121,121,119,120,119,120,122,121,121,121,118,120,119,121,122,121,121,122,121,119,124,122,122,122,121,121,122,120,124,121,121,120,121,121,120,121,116,121,121,120,120,121,120,121,121,121,122,120,121,121,121,118,125,120,121,120,121,121,121
118,119,120,121,121,121,122,120,122,123,121,121,120,121,123,120,119,119,121,122,121,121,120,120,120,122,121,122,121,121,122,121,119,122,121,122,121,121,120,119,121,116,121,122,121,121,123,120,120,122,121,122,122,121,120,120,121,124,122,123,120,120,121,121,122,125,121,122,121,121,122,119,122,122,121,121,121,121,121,121,121,121,121,122,121,120,121,121,119,122,121,122,121,121,121,121,122,121,121,122,121,121,121,123,120,115,121,122,121,120,120,119,122,123,121,122,122,121,121,118,121,124,121,121,120,120,121,121
119,126,120,121,120,120,121,121,121,121,121,121,121,121,122,122,121,121,120,121,121,121,123,121,119,123,121,122,122,121,121,120,120,118,120,122,121,121,121,121,121,122,122,122,121,120,121,119,121,121,121,122,122,121,121,119,120,125,120,121,121,121,122,121,119,119,121,122,121,121,122,119,122,120,122,122,121,121,121,120,121,119,121,122,121,121,121,117,121,121,121,122,120,120,121,123,119,123,122,121,121,121,121,120,121,120,121,122,122,121,121,120,119,120,121,122,121,122,122,120,120,125,121,122,121,121,121,129
120,126,121,122,121,121,122,118,121,115,121,121,120,121,121,123,121,122,121,121,121,120,122,118,117,124,121,121,121,122,121,117,122,124,119,121,121,122,121,121,120,121,121,122,121,121,120,118,120,122,121,121,121,121,122,122,118,123,121,122,121,121,121,119,120,114,121,122,121,120,120,125,120,119,121,122,120,120,121,118,121,128,121,122,122,121,122,122,117,117,121,122,121,120,121,123,123,120,120,121,121,121,122,119,120,120,121,121,121,121,121,121,121,126,120,121,121,121,121,120,120,121,120,121,121,121,122,120
119,126,121,121,120,121,121,131,120,118,121,123,121,121,121,115,122,121,121,122,122,121,120,117,121,126,122,121,122,121,122,122,122,119,121,121,120,121,121,119,121,118,120,121,121,121,121,120,121,116,120,122,121,121,121,121,120,127,120,122,122,122,122,123,120,119,120,122,121,121,122,119,121,118,121,122,122,121,121,119,122,123,120,122,121,121,121,121,120,125,122,122,120,120,121,122,120,120,121,122,121,120,121,120,120,121,121,122,121,122,120,117,119,118,121,122,121,121,120,120,120,128,121,122,122,121,121,120
117,120,121,121,121,121,122,120,122,116,121,122,121,121,121,121,121,120,122,122,121,120,121,120,119,125,120,122,121,121,122,119,124,120,121,122,121,121,122,121,119,121,120,121,121,121,121,119,121,121,120,122,122,122,121,119,119,125,120,121,121,121,122,121,120,122,121,122,121,121,122,122,119,118,121,122,121,121,121,119,121,120,120,121,121,121,121,122,120,119,120,121,121,121,123,121,123,123,121,122,121,120,121,120,121,119,120,122,120,121,121,119,120,123,121,122,121,121,121,119,120,123,121,121,120,121,121,122
119,119,121,121,121,121,121,121,122,122,121,122,122,121,121,119,120,123,120,122,122,122,121,119,121,122,122,122,121,121,121,121,120,119,121,122,121,120,121,120,121,121,122,122,121,121,122,121,117,116,121,122,121,122,121,118,120,124,121,122,121,121,122,122,120,123,121,122,121,120,122,120,121,124,121,122,120,120,120,119,122,118,122,122,122,121,122,120,120,121,121,122,122,121,121,119,121,121,121,122,121,121,121,120,119,122,121,122,121,120,120,119,122,122,121,122,122,121,120,118,119,123,120,122,120,120,121,121
121,120,121,122,122,121,121,123,122,120,121,122,121,121,122,120,122,120,121,122,121,121,122,119,118,124,121,122,120,120,121,123,120,121,122,122,122,121,121,120,121,119,121,122,121,120,120,118,122,125,121,122,120,120,122,120,120,125,121,122,122,121,122,121,120,121,120,121,121,121,121,120,121,118,121,122,121,120,121,119,119,118,122,122,121,121,123,121,122,126,121,123,122,121,121,121,121,118,120,122,121,121,122,120,121,119,120,121,121,121,121,120,120,123,121,122,122,121,121,120,122,125,121,122,121,122,122,120
122,121,121,121,121,121,121,127,121,121,121,122,121,121,121,118,120,122,122,122,121,120,121,120,123,125,120,121,121,121,121,123,120,124,121,122,122,120,120,120,118,116,121,122,121,121,121,119,122,123,120,121,121,121,122,119,120,123,120,121,121,121,121,119,117,120,121,122,122,121,121,119,121,118,121,122,121,121,122,120,121,119,121,122,122,121,120,120,121,125,121,121,120,121,121,122,118,124,120,122,121,121,121,119,121,120,121,121,121,121,120,120,121,122,121,122,121,120,120,119,121,123,121,122,120,121,122,120
123,123,121,122,121,121,122,122,121,120,121,122,122,121,121,116,119,118,120,121,121,121,121,119,121,122,120,122,121,121,122,122,120,117,120,121,121,121,121,123,119,121,120,121,121,121,122,119,122,122,120,121,121,121,122,122,119,127,121,122,122,122,122,121,123,121,121,121,120,121,121,119,120,121,121,121,121,121,122,121,121,124,120,121,121,121,122,124,120,125,121,122,121,120,120,121,120,121,121,122,121,120,120,119,120,118,121,121,120,121,121,118,120,120,121,122,121,121,121,119,119,119,120,121,121,121,121,121
122,122,121,122,121,120,120,119,124,121,122,122,122,121,121,121,119,124,120,122,121,120,123,121,119,125,121,122,121,120,121,121,120,116,121,122,120,120,121,121,123,121,121,122,122,122,121,120,119,121,121,122,121,122,121,119,120,125,120,122,121,121,122,121,119,121,121,121,121,121,122,120,122,119,121,122,121,120,120,121,122,123,121,122,122,122,122,118,121,120,122,122,120,120,121,121,122,122,121,122,122,121,121,121,121,120,120,121,121,122,122,119,122,124,122,122,121,121,122,120,118,124,121,121,120,121,120,121
119,119,121,122,121,122,121,122,121,117,121,122,122,121,121,118,120,122,121,122,121,120,121,119,120,131,121,122,121,120,122,122,122,120,121,121,120,120,121,121,120,118,120,121,121,121,121,120,119,117,121,122,122,121,120,120,119,122,121,122,121,121,121,118,122,125,120,121,120,121,122,121,122,117,121,122,122,122,121,119,121,123,121,121,121,121,121,121,120,127,122,122,121,121,122,121,122,124,120,122,121,121,122,121,120,122,121,122,122,121,121,120,121,121,121,121,121,121,122,122,120,127,121,122,122,121,121,121
121,117,120,121,121,121,121,119,122,115,121,122,121,121,121,121,120,120,121,122,121,122,122,120,120,126,121,122,120,120,121,120,118,123,121,121,120,120,121,122,122,118,121,122,121,121,120,119,122,120,121,122,121,120,121,121,121,120,122,121,120,121,121,122,120,124,121,122,122,121,121,121,119,117,121,122,122,121,120,119,119,124,121,122,122,121,121,119,120,125,121,122,121,121,121,116,121,115,121,122,122,121,121,119,119,118,120,122,121,122,121,118,120,121,121,121,120,121,121,121,121,124,121,122,121,121,121,121
121,122,121,122,121,121,122,128,120,120,121,122,121,121,121,118,121,123,120,121,121,121,122,116,120,123,121,122,120,120,121,121,121,122,121,122,121,120,120,122,119,119,121,122,121,121,121,117,120,122,121,121,120,121,121,119,121,121,121,122,122,122,121,122,120,119,120,122,121,121,121,119,121,122,121,122,122,121,121,119,121,124,120,122,121,122,122,122,120,126,120,122,121,121,121,120,118,123,121,122,121,121,122,120,123,120,121,122,122,121,121,119,121,122,120,122,121,121,121,120,118,125,121,122,121,120,121,122
120,123,121,122,121,120,121,120,122,115,121,122,122,122,121,119,118,125,121,121,120,120,121,122,120,121,120,121,121,121,121,122,121,119,121,122,121,120,120,120,123,120,120,122,121,121,122,118,120,119,121,122,122,122,121,122,119,125,121,121,120,120,121,121,121,126,121,122,121,120,121,122,122,120,120,121,121,121,121,120,120,122,121,123,122,122,121,121,118,125,120,122,121,121,121,120,121,121,121,121,120,121,121,120,121,121,120,121,121,121,122,121,121,115,121,122,122,121,120,119,120,124,120,121,121,121,121,121
120,120,121,122,122,121,121,120,119,120,122,122,121,120,121,121,121,121,121,122,121,121,122,121,119,124,120,121,120,121,121,122,121,120,122,122,120,120,121,120,120,118,121,122,121,121,122,119,119,123,121,122,120,121,121,121,119,121,121,122,122,121,121,121,119,122,120,121,122,121,121,120,122,115,121,122,121,120,121,118,121,121,121,122,120,121,121,120,120,129,122,123,122,121,122,122,122,119,121,121,121,121,122,121,121,118,121,122,121,121,122,119,121,118,121,122,122,121,123,120,121,122,120,121,121,121,122,121
119,121,121,121,121,121,121,122,121,117,121,121,120,121,121,123,121,121,121,122,121,120,121,120,121,122,121,121,120,121,121,121,120,123,121,122,121,120,121,121,121,121,120,121,121,122,121,120,121,124,121,121,121,121,121,121,119,125,122,122,121,120,121,120,120,121,120,121,121,121,121,121,120,119,120,122,121,121,122,120,121,118,120,121,121,121,122,120,122,125,120,122,121,121,122,121,122,120,122,122,122,121,122,119,120,122,121,122,121,120,121,120,120,122,120,122,121,122,122,120,120,121,121,122,121,120,120,121
122,123,121,122,122,122,122,122,122,120,120,121,121,121,121,121,122,123,122,122,121,120,122,122,120,128,120,121,121,121,122,122,121,116,121,122,121,121,122,119,122,120,121,121,121,121,122,120,120,123,121,122,121,120,121,120,120,124,120,121,121,121,121,119,119,124,120,122,122,121,121,119,120,121,121,121,121,121,121,119,121,118,121,122,121,121,122,118,121,123,120,121,121,121,122,122,121,121,121,122,121,121,120,119,122,121,121,122,122,122,121,121,121,125,120,121,121,121,121,120,119,119,121,122,121,121,121,121
119,121,121,122,122,122,122,121,122,122,121,122,122,121,122,123,121,126,120,121,121,121,120,119,120,123,121,123,121,120,120,119,121,121,121,122,121,120,120,118,121,120,121,122,121,121,121,121,121,120,122,122,121,122,122,123,119,128,121,122,121,120,121,123,119,127,120,121,121,121,122,120,121,117,120,122,121,121,122,117,124,122,121,121,121,121,121,121,120,126,121,121,121,121,121,121,121,122,121,122,122,121,121,119,120,122,121,122,121,121,120,120,122,123,121,121,121,121,122,121,119,118,120,122,121,121,121,122
119,121,121,122,121,122,121,118,122,124,120,121,121,121,122,116,120,121,122,122,121,121,120,122,120,123,121,121,120,121,121,121,121,119,121,122,121,120,121,119,122,120,120,121,121,121,121,120,120,120,120,121,121,121,121,120,122,124,121,122,122,121,122,120,120,124,120,122,121,121,121,121,122,119,121,122,121,121,121,121,119,122,120,121,121,121,121,122,119,124,121,122,121,121,122,122,119,118,121,122,121,120,121,120,122,118,121,122,120,121,121,120,121,124,121,122,122,120,121,120,120,125,121,122,122,121,120,120
118,119,120,121,121,121,121,121,120,117,120,122,121,121,121,119,121,119,122,122,121,120,121,123,120,121,120,122,121,121,121,120,120,122,121,122,121,120,122,119,122,119,120,122,122,121,120,118,120,125,121,122,121,120,120,121,119,126,121,122,122,121,120,119,123,123,121,122,122,121,122,120,121,120,121,122,122,121,120,120,121,122,121,122,120,120,120,119,120,121,121,122,122,121,121,121,120,122,122,122,121,121,122,120,121,122,121,122,122,121,121,117,121,122,121,122,121,122,122,121,121,126,120,121,120,121,121,120
121,118,121,122,121,121,122,121,120,117,121,121,121,121,121,119,119,125,120,122,121,121,121,120,119,124,120,122,122,122,121,120,119,121,121,121,121,121,120,121,121,121,121,121,121,121,122,123,122,123,120,121,121,121,121,120,120,121,120,121,121,121,121,120,120,123,120,122,121,121,122,121,124,117,121,122,122,121,121,121,120,120,121,121,121,121,122,120,119,123,120,122,121,121,122,121,120,120,121,122,121,121,122,120,121,119,121,122,121,121,121,120,121,118,121,122,121,121,122,119,119,124,121,122,121,121,122,121
121,122,121,121,121,121,122,121,121,119,121,122,122,122,121,117,121,126,121,121,120,121,121,121,121,121,121,122,121,120,121,120,122,122,121,122,120,120,120,121,118,119,120,122,121,121,121,114,119,120,120,121,121,121,123,128,124,122,122,123,123,123,125,119,120,123,120,122,121,121,121,117,118,113,120,121,121,121,121,118,121,123,122,122,121,121,121,119,121,124,121,122,121,121,121,121,119,120,120,122,121,121,120,117,117,121,121,121,121,121,120,119,127,126,122,123,121,120,121,120,117,122,120,121,121,121,121,118
124,123,121,122,121,122,122,124,120,119,120,121,120,120,121,122,119,119,121,122,121,121,120,123,122,125,121,122,122,122,121,120,119,123,121,122,120,120,120,118,122,117,120,121,120,121,121,120,118,120,121,122,122,121,121,120,118,120,121,122,121,124,122,124,124,121,122,122,121,120,121,126,126,120,121,122,121,120,123,119,116,119,120,122,122,119,120,118,122,121,121,122,121,122,120,118,120,124,120,120,119,120,124,126,120,120,121,122,122,119,118,123,119,119,121,122,122,123,117,117,123,125,120,121,121,115,122,124
119,122,122,122,124,141,127,109,119,118,120,120,120,120,123,114,121,120,121,121,122,125,125,123,123,128,122,123,123,121,104,124,119,120,120,119,116,107,118,121,120,117,122,126,122,132,117,118,120,123,121,121,121,105,128,116,126,118,120,118,121,114,127,127,121,121,121,121,120,142,119,118,122,122,122,128,118,81,119,120,121,125,122,119,122,111,124,122,119,121,119,116,114,147,131,119,120,120,121,126,121,112,108,121,123,117,118,112,133,135,135,117,125,123,124,131,125,120,125,123,117,125,122,112,118,112,114,118
128,122,120,124,120,115,95,114,124,115,120,117,124,129,130,131,118,119,122,124,121,91,126,118,125,108,120,121,119,115,129,118,116,110,121,119,119,119,121,109,127,103,119,125,121,115,109,113,130,124,125,117,119,139,119,132,119,125,121,125,132,159,128,112,116,125,119,115,106,154,123,122,120,123,121,122,116,86,114,119,122,119,121,113,132,162,114,106,121,121,120,121,120,112,135,138,119,116,119,113,122,135,120,114,118,117,121,118,112,98,126,121,120,128,122,126,130,151,110,120,118,132,119,118,116,108,110,116
121,127,118,107,109,110,109,117,123,130,126,133,135,148,130,125,118,122,120,121,112,104,100,118,120,126,123,135,131,148,130,124,114,130,124,121,109,96,111,118,138,104,117,123,154,156,117,102,123,122,121,142,107,86,127,149,109,129,126,125,129,145,126,105,136,122,117,109,113,83,126,115,118,126,125,140,126,169,139,129,119,127,120,121,116,130,94,118,114,114,121,119,135,131,141,121,115,124,122,126,119,115,101,114,118,116,118,112,111,127,113,119,114,137,124,126,112,138,102,123,138,103,120,153,133,170,153,131
122,120,122,120,133,79,67,126,122,121,122,113,115,102,113,119,118,125,120,117,110,143,127,118,105,123,120,117,125,166,129,130,125,116,123,119,122,119,157,119,108,120,122,135,135,165,60,121,119,127,124,134,122,101,102,121,116,124,118,110,114,140,149,118,115,123,119,129,122,97,142,118,117,118,119,99,111,134,95,122,105,128,123,151,121,109,110,116,118,123,119,111,116,108,119,121,121,111,121,138,126,124,153,121,125,121,121,109,113,144,87,128,115,126,122,142,124,95,110,120,128,124,121,119,114,114,121,113
113,117,118,111,117,152,125,138,114,129,123,114,120,90,86,106,142,123,122,119,123,140,172,118,122,127,120,115,119,110,104,123,118,123,120,115,114,95,114,121,102,125,123,128,129,109,152,111,126,113,118,119,122,133,98,124,131,122,121,119,113,114,115,121,119,121,123,120,119,51,112,118,123,124,123,126,141,147,140,119,128,129,124,112,110,133,150,122,101,115,119,127,131,96,122,118,109,120,121,119,120,130,104,118,136,121,118,103,112,115,90,116,101,119,124,145,136,154,133,125,152,123,129,126,132,122,145,128
89,110,113,109,117,71,87,121,138,115,121,120,114,112,121,117,111,125,121,119,115,118,115,119,114,119,121,115,124,104,96,122,119,122,118,126,127,167,113,117,117,123,122,120,110,106,128,117,101,113,119,116,117,105,73,112,122,136,120,123,113,137,146,119,119,120,123,119,111,118,111,112,121,123,122,123,129,103,79,128,115,123,123,144,127,107,153,120,127,137,126,128,116,102,110,121,123,116,121,110,109,97,83,109,178,111,122,148,143,158,184,130,110,125,120,113,119,80,121,121,116,123,117,109,106,72,41,113
115,126,126,142,142,205,156,124,122,125,123,118,114,97,104,122,128,122,119,119,117,105,110,114,123,112,115,104,108,140,97,118,120,132,129,158,140,53,147,126,106,121,123,119,113,110,148,117,128,114,115,114,132,142,107,119,124,127,123,131,122,125,114,123,102,119,117,104,118,187,126,117,101,125,126,131,124,183,132,123,133,118,123,133,132,142,81,121,111,122,119,117,118,94,101,116,141,117,114,103,101,80,89,115,121,125,125,151,145,170,156,121,103,118,117,111,105,128,137,118,127,119,119,122,121,96,81,118
105,114,115,112,95,114,80,108,124,123,132,138,162,96,116,132,119,123,120,127,123,100,174,124,118,128,130,114,109,117,103,121,118,119,100,117,122,91,100,117,121,129,131,118,117,128,118,116,122,96,126,143,131,105,118,136,102,136,125,108,112,110,84,118,132,123,122,116,111,105,152,126,115,118,123,128,150,108,113,119,111,118,119,119,107,97,98,118,114,123,120,117,123,139,107,123,105,120,123,131,122,143,107,122,132,119,122,120,118,104,127,121,116,116,121,125,129,125,121,120,119,126,123,122,123,126,131,122
122,121,119,107,105,125,104,117,109,124,121,112,127,87,92,110,128,123,122,142,127,127,112,122,124,120,121,116,120,99,156,125,120,118,120,111,107,109,124,116,122,118,122,120,121,96,115,119,122,121,112,114,112,121,142,117,138,115,124,127,121,111,70,128,113,125,123,133,127,120,133,116,113,125,119,110,117,120,84,117,119,121,121,118,126,136,173,124,118,118,123,132,131,75,119,125,123,121,120,107,108,105,133,115,106,124,118,100,117,77,76,111,115,118,122,111,73,171,172,118,128,128,125,171,197,125,165,127
119,120,124,103,99,107,105,114,119,123,109,100,98,133,113,119,115,117,125,113,123,109,100,125,113,122,119,113,98,163,96,116,127,123,123,107,118,67,179,132,120,122,121,142,129,115,97,116,150,122,119,112,116,114,94,120,117,124,119,101,125,125,121,118,128,116,120,126,119,91,116,123,123,126,119,102,109,137,109,116,112,117,121,120,127,135,139,127,124,120,118,106,114,122,133,123,126,124,122,137,133,132,100,112,120,116,118,118,119,62,137,122,100,130,128,128,138,174,118,125,106,115,118,114,110,93,104,119
108,119,120,161,141,92,64,113,126,123,126,126,129,162,223,134,121,118,117,125,109,91,86,116,115,126,122,82,111,91,130,122,128,115,119,122,127,129,115,123,120,123,122,152,127,124,122,118,136,121,119,114,115,119,116,121,121,135,123,105,111,88,122,122,117,110,123,129,115,139,48,121,125,117,115,121,139,123,159,119,116,123,121,110,106,146,166,122,107,131,120,118,117,68,88,118,118,108,122,120,123,154,129,126,127,118,114,106,112,107,106,117,117,124,126,140,136,101,102,117,113,125,119,160,136,120,146,119
124,116,120,120,108,103,138,119,122,122,120,111,113,124,121,117,116,117,120,120,122,110,99,117,116,132,121,123,120,141,141,117,101,120,118,108,135,162,134,114,99,106,121,104,113,140,90,125,110,129,125,174,139,134,142,116,111,121,118,106,109,126,111,120,134,113,114,114,112,110,105,119,99,117,122,118,118,142,120,118,104,124,120,119,128,100,120,117,137,119,124,119,115,143,126,119,113,125,116,121,124,111,125,124,106,119,122,127,122,134,99,114,121,115,120,119,121,109,140,119,122,127,121,119,122,147,142,119
135,117,119,132,115,128,124,119,120,120,119,100,110,68,89,117,123,132,124,157,157,140,167,123,118,126,120,105,107,98,87,120,111,115,120,124,127,92,107,112,106,120,115,112,96,117,137,119,127,128,123,111,122,129,141,124,131,131,126,138,122,98,97,116,113,112,121,130,102,124,114,123,144,120,119,115,137,93,131,123,124,121,121,115,112,99,137,119,127,122,120,117,127,122,117,116,99,123,126,134,126,128,63,124,125,113,128,116,115,104,116,118,119,123,107,121,115,130,118,121,130,131,128,120,124,125,123,118
128,103,118,126,125,120,100,125,115,125,124,121,122,118,154,121,127,115,118,92,111,157,100,122,118,130,124,143,127,109,118,118,118,124,121,108,115,91,111,121,105,115,118,113,107,92,114,116,127,132,119,131,156,95,127,119,87,126,127,140,122,128,124,121,129,109,117,117,111,101,97,119,119,124,121,122,117,126,109,114,112,126,119,83,105,132,122,119,127,126,122,154,150,137,151,124,118,120,123,105,112,147,136,117,116,117,120,118,118,132,108,117,113,119,117,112,113,74,94,117,120,130,123,121,131,157,138,126
107,118,118,122,114,138,99,116,109,102,114,106,112,108,93,129,123,129,131,131,131,102,105,122,124,122,107,111,103,104,114,109,139,116,122,119,129,133,147,123,118,125,125,132,111,91,116,121,116,126,119,114,123,136,92,119,124,103,121,123,117,97,106,123,130,121,122,117,127,184,137,120,118,122,121,133,120,113,150,119,121,130,125,128,116,37,97,118,119,124,118,128,123,118,134,122,144,112,117,106,102,137,104,120,117,130,125,159,143,97,128,124,117,120,118,118,118,117,112,117,113,131,119,116,117,113,112,121
124,111,121,122,121,148,99,131,115,120,122,114,118,110,112,120,111,127,118,115,111,97,121,112,121,121,124,126,133,119,109,126,118,123,120,128,125,135,112,117,115,121,117,113,115,128,131,120,131,114,126,111,114,154,139,125,115,123,118,118,126,102,110,115,121,122,120,126,131,183,116,117,120,119,123,122,123,77,107,117,126,129,124,121,100,123,125,120,139,118,118,118,114,112,130,122,118,123,125,100,135,106,107,122,117,124,118,112,109,145,135,118,115,120,121,144,173,135,137,121,119,126,122,148,118,119,130,124
134,122,121,114,119,122,113,113,113,116,123,114,122,119,128,128,119,126,119,118,115,94,123,118,112,128,123,114,122,138,119,122,121,109,118,110,120,100,102,120,126,130,127,128,105,118,135,115,123,109,120,124,121,112,84,121,131,117,120,119,129,96,113,127,119,126,123,122,118,127,154,122,118,124,121,111,108,137,115,124,113,120,120,120,126,137,118,119,129,127,119,119,121,112,125,122,119,120,122,120,120,137,117,116,128,116,116,112,115,95,111,117,109,125,129,127,129,135,142,121,127,119,117,129,122,130,125,124
123,124,120,117,119,123,107,112,112,121,121,126,117,111,111,118,114,128,122,124,130,103,118,121,102,117,121,170,143,133,117,123,126,125,124,117,109,125,161,119,115,113,120,122,134,78,106,129,124,130,124,107,111,130,113,118,113,108,118,110,117,116,127,121,101,130,124,145,146,124,90,118,139,110,122,128,115,113,135,126,115,124,120,110,113,106,108,118,113,119,118,124,112,121,119,119,123,120,124,114,112,122,107,118,131,124,123,151,122,110,129,122,117,123,118,113,129,135,112,121,122,130,122,146,130,138,115,117
134,110,123,120,122,123,152,120,117,120,125,110,114,96,106,115,125,123,115,139,140,132,132,119,107,127,124,115,107,117,124,118,125,122,124,130,127,128,128,128,151,118,116,105,105,109,106,114,117,123,121,128,136,122,123,121,122,127,121,119,120,103,96,125,117,118,120,124,124,154,152,123,126,119,121,113,120,110,126,118,121,120,118,119,115,111,114,124,124,119,121,117,120,92,123,117,115,127,121,121,122,140,140,124,119,127,123,108,114,107,127,119,119,111,118,170,143,112,106,128,103,131,124,115,109,104,134,117
142,104,120,116,120,128,123,128,112,124,122,126,119,92,100,110,116,126,122,124,123,91,113,128,130,122,116,121,118,136,86,113,108,132,131,121,111,100,183,129,118,115,128,108,116,117,154,123,122,128,119,148,140,105,96,120,113,127,117,109,102,140,121,119,131,112,118,120,138,120,113,120,119,126,123,139,128,119,153,120,113,120,122,114,119,121,134,123,151,117,116,115,105,135,130,120,106,124,125,127,125,131,92,126,111,117,119,124,115,100,144,106,126,121,119,114,109,136,117,141,122,117,121,124,132,155,112,125
117,120,118,115,119,155,138,114,121,125,122,127,128,102,99,121,121,124,120,118,121,152,138,124,124,120,124,137,123,132,86,106,96,127,124,117,119,137,143,125,139,115,121,118,127,120,138,137,114,122,118,104,116,128,110,110,110,120,124,125,122,133,116,121,121,121,121,120,110,120,101,118,116,119,122,147,140,107,131,120,121,126,115,138,119,116,119,123,107,122,125,103,107,136,98,117,121,113,116,141,139,121,155,116,121,121,120,117,123,137,114,126,108,124,121,118,115,116,124,119,123,124,121,123,119,89,101,124
133,127,122,114,117,144,158,122,111,120,119,126,135,97,101,114,122,121,119,135,98,103,115,127,116,119,118,125,121,115,125,120,136,128,124,115,118,91,105,114,132,113,120,120,130,131,143,123,125,125,121,115,68,132,123,125,153,125,122,125,175,98,131,120,128,117,120,121,115,127,168,124,123,120,120,120,116,107,103,122,120,126,121,109,115,115,114,118,115,123,123,131,129,134,113,122,119,115,120,117,116,102,109,130,110,118,120,125,126,109,130,114,123,120,119,108,116,130,124,123,105,131,124,129,122,96,116,117
126,119,121,131,127,135,110,121,140,108,115,106,111,54,94,130,120,124,127,116,138,161,148,119,128,129,119,111,112,119,134,123,120,108,121,108,110,133,109,120,125,119,121,114,114,94,118,117,115,123,119,124,122,130,128,118,123,122,125,119,112,133,121,120,119,122,122,126,122,99,95,124,123,116,125,124,135,144,112,119,121,131,120,160,131,119,115,116,117,106,115,107,110,107,112,119,121,126,120,100,120,108,117,122,121,129,125,135,120,120,126,117,127,117,121,119,117,124,129,123,117,120,120,122,120,115,111,121
130,119,120,127,123,117,115,122,126,120,123,127,123,156,118,120,122,123,119,107,106,127,127,110,121,124,122,111,120,136,110,126,129,123,120,116,118,106,115,117,118,118,119,115,120,114,113,116,130,123,122,121,115,124,136,125,111,137,125,122,134,130,121,115,144,105,117,118,116,100,107,125,127,119,121,124,128,146,127,120,112,116,119,113,114,99,120,125,112,128,120,135,122,154,153,119,123,120,122,108,121,130,97,118,124,120,124,130,125,111,125,111,120,113,118,110,114,122,123,125,120,122,111,127,127,114,116,123
116,117,122,105,92,109,118,118,129,122,118,117,141,95,96,124,120,118,124,88,106,117,111,124,110,133,130,179,129,138,148,114,149,108,115,98,99,110,105,124,116,131,123,121,134,89,139,122,115,118,121,119,119,142,123,119,115,125,122,127,117,97,111,121,126,115,121,117,123,121,124,127,117,122,120,127,122,111,114,118,127,123,122,123,122,136,131,125,112,125,119,101,98,126,119,116,145,115,124,146,138,111,122,122,110,119,122,143,128,140,136,120,122,125,120,114,121,122,118,124,117,122,122,112,107,117,107,120
119,127,120,132,148,104,151,117,122,119,122,134,122,129,126,126,121,126,121,119,122,112,117,121,114,114,117,118,117,108,109,119,124,126,124,112,121,146,136,131,111,127,123,118,134,123,137,115,129,119,118,117,115,120,122,118,122,122,120,119,137,110,110,127,134,120,120,127,116,130,127,118,126,123,133,140,126,116,122,117,122,121,105,112,128,96,115,122,133,110,121,117,113,158,134,121,121,123,125,123,128,129,131,120,121,124,123,124,120,175,111,117,125,122,125,120,111,136,116,122,112,122,123,129,131,114,118,114
119,119,118,116,116,115,121,116,119,122,119,124,119,122,128,127,118,123,123,134,136,110,113,117,110,125,123,104,105,142,135,116,128,118,124,130,143,49,108,125,123,122,122,120,125,146,125,115,114,119,119,108,97,113,124,124,122,128,120,136,150,112,112,128,123,121,120,95,103,127,117,114,95,124,128,146,113,112,126,120,154,112,120,121,128,136,133,126,121,125,118,106,115,111,120,118,112,121,123,137,132,119,112,119,116,127,118,103,114,106,116,117,116,114,121,125,148,89,157,130,127,121,122,124,121,156,118,120
132,126,124,126,114,99,134,122,119,118,121,124,126,125,114,119,121,124,118,101,113,113,105,120,121,125,135,140,113,117,120,120,125,124,104,115,137,122,103,117,134,121,125,122,110,103,127,115,109,122,124,110,120,119,104,124,124,126,124,149,127,117,129,122,114,121,120,100,114,137,108,115,124,117,121,124,118,108,109,116,127,133,123,150,131,104,127,113,120,117,117,97,122,174,113,116,129,122,126,169,123,152,143,122,125,118,122,117,135,121,140,116,114,122,121,121,119,121,113,122,121,125,121,119,112,108,115,120
110,126,121,93,108,96,113,117,129,111,124,155,147,147,156,130,118,122,121,106,108,126,116,121,100,126,123,136,128,138,111,116,119,118,123,116,107,99,127,124,109,119,117,125,128,153,122,119,127,132,130,145,141,66,117,133,121,129,124,121,113,121,118,120,129,117,122,117,127,117,115,128,127,115,118,137,126,119,118,112,124,126,118,120,122,136,118,117,122,119,121,106,106,115,115,124,112,122,120,118,126,116,129,118,98,123,121,109,108,107,114,120,151,112,119,119,126,128,93,117,114,130,123,126,122,104,120,127
110,122,124,139,113,114,117,114,124,118,119,121,124,119,119,123,116,119,121,115,120,125,119,118,109,124,118,126,122,127,123,115,130,122,120,132,128,122,112,114,121,117,123,115,118,106,121,128,119,123,120,116,118,113,123,121,114,125,125,116,109,127,115,117,112,121,122,102,116,108,114,115,123,123,111,118,136,163,120,132,112,122,122,95,111,121,126,114,126,125,125,141,124,123,110,118,123,119,120,123,126,122,129,126,107,118,116,110,108,112,112,111,142,122,125,131,132,160,117,129,138,114,118,121,109,96,111,118
129,126,125,111,104,109,141,132,119,123,121,119,116,118,109,111,127,117,120,110,122,110,123,128,126,120,120,113,130,128,120,113,118,127,122,136,120,112,126,118,123,126,125,121,126,108,114,119,123,116,121,118,118,122,127,124,130,115,112,100,111,126,110,115,125,120,128,144,124,87,119,120,119,126,122,116,115,171,132,116,115,125,117,121,114,108,117,121,116,121,122,107,129,127,111,123,121,121,122,161,118,91,105,114,123,127,123,120,125,115,116,121,111,125,122,120,120,113,139,122,118,118,120,128,112,89,108,119
130,122,121,118,124,113,114,119,119,127,122,110,107,105,126,124,129,121,121,129,123,123,117,117,125,122,120,114,119,107,108,119,109,126,117,109,106,160,154,110,99,113,126,147,151,119,140,124,131,124,122,127,123,124,115,119,119,125,125,118,110,104,113,128,126,117,119,119,113,134,110,110,122,121,122,119,134,189,132,134,121,122,123,118,112,126,166,114,120,130,125,121,118,115,114,118,117,104,114,110,125,123,118,129,120,122,122,150,123,108,118,115,121,123,124,122,128,140,145,120,119,121,119,115,119,129,120,115
117,126,127,113,111,111,115,127,142,115,115,100,129,120,128,125,116,118,122,132,113,117,121,112,117,130,124,118,117,124,122,117,121,122,122,117,117,106,100,121,122,118,120,130,134,137,153,125,129,126,121,120,117,84,108,120,126,117,120,128,123,158,116,124,127,125,121,91,116,117,116,117,117,117,121,133,130,115,128,114,111,124,120,114,115,122,120,126,126,117,115,102,98,117,116,118,129,124,125,124,128,132,130,118,117,121,122,118,118,134,122,120,105,123,121,124,118,109,114,120,121,120,113,116,123,124,129,121
118,126,124,104,103,120,122,118,124,119,123,138,126,121,105,126,108,126,120,109,118,124,121,112,141,118,121,153,134,92,118,123,129,126,120,116,111,121,124,121,115,116,118,106,117,120,112,115,166,130,122,130,113,135,138,131,107,125,123,123,127,152,143,119,115,116,120,120,115,83,104,111,119,122,118,107,117,137,121,121,113,122,125,162,138,107,138,120,104,123,113,121,123,110,115,114,113,116,118,126,116,132,124,125,110,126,125,111,124,123,128,116,122,119,117,110,118,127,130,121,122,124,122,127,131,122,114,120
136,121,124,110,99,107,114,120,115,123,121,121,130,160,140,114,112,121,118,115,114,121,117,114,115,124,124,136,128,86,119,120,118,117,122,127,121,115,122,118,119,126,123,122,127,131,122,117,110,114,117,103,116,115,115,122,139,124,121,112,109,114,125,121,123,118,119,124,122,110,110,117,138,122,122,110,124,134,128,129,108,122,118,120,126,124,103,129,118,124,124,111,117,124,131,120,129,119,119,128,116,117,130,120,121,120,121,120,122,113,111,122,117,123,122,124,122,115,116,122,124,128,125,113,110,119,130,114
135,119,115,141,156,184,124,125,109,113,120,112,110,66,118,120,142,127,122,116,118,110,116,115,120,125,123,118,116,133,119,127,119,120,120,103,124,114,105,113,122,123,121,127,127,129,120,114,119,133,129,111,120,145,127,122,134,120,117,123,124,104,131,124,118,112,118,123,122,115,107,120,113,123,121,128,122,129,110,109,128,116,121,130,127,108,101,132,123,128,121,132,131,141,142,120,122,116,118,114,128,130,115,119,109,119,121,171,139,113,130,125,121,124,123,119,113,82,163,125,114,119,118,112,116,121,84,115
125,121,123,119,115,95,90,114,120,121,123,113,125,95,148,133,119,117,112,126,123,98,110,114,119,119,124,105,106,95,102,116,114,127,126,126,112,97,129,130,126,123,124,114,128,133,113,128,107,119,118,113,117,132,124,113,129,119,121,113,117,93,112,124,127,121,121,138,132,120,119,111,117,121,119,119,112,115,112,125,135,121,123,113,113,85,119,134,116,124,122,119,113,119,112,111,109,123,122,117,119,116,107,122,121,117,117,117,120,144,118,113,117,124,121,112,114,126,114,114,121,122,119,121,119,85,122,119
122,123,126,126,126,147,134,123,126,122,120,109,111,96,113,123,126,121,119,124,122,156,130,118,127,122,124,119,117,111,124,122,113,123,122,131,114,101,108,127,111,121,128,143,145,135,104,119,132,120,117,139,128,95,128,120,114,123,122,113,115,106,130,141,119,122,121,117,104,118,104,108,119,119,121,108,109,93,102,116,107,122,122,135,145,150,146,115,115,121,121,115,114,101,109,127,126,121,114,125,122,128,100,112,122,114,118,117,116,97,144,124,119,123,121,142,129,170,131,110,116,123,120,121,122,122,125,133
116,126,126,126,122,134,119,113,124,114,113,118,117,91,122,118,122,119,122,117,115,125,111,115,114,126,126,152,141,122,125,121,126,115,113,111,125,115,129,127,120,123,130,128,118,124,115,114,113,122,111,113,115,130,105,129,128,124,130,134,133,164,130,126,117,123,123,141,124,154,103,111,129,127,126,128,118,102,118,126,119,116,119,116,121,110,123,130,122,129,123,105,125,173,114,111,111,122,116,137,113,117,114,108,112,108,121,124,134,133,119,126,117,127,121,116,120,121,128,128,120,122,122,120,106,87,126,113
134,118,119,118,134,125,122,123,113,114,118,112,121,118,127,123,130,125,124,148,118,108,118,113,124,122,121,110,127,140,123,119,116,121,118,118,115,108,127,116,125,123,120,117,121,156,128,114,130,117,121,117,119,105,122,135,117,126,124,123,117,122,155,110,122,119,129,122,120,112,112,112,128,120,110,135,122,132,110,120,109,127,126,102,106,96,121,117,139,119,125,137,137,115,126,117,110,124,123,113,102,121,129,115,102,123,123,122,137,163,114,121,131,116,118,116,126,119,116,135,112,124,121,138,115,107,116,120
135,120,121,127,120,118,139,108,130,120,120,119,122,111,111,123,120,122,119,109,121,123,124,119,105,124,120,138,137,123,122,119,116,118,122,129,116,114,126,107,130,124,113,113,114,136,133,125,107,117,127,136,130,75,140,116,127,126,115,110,119,129,128,123,119,120,124,149,119,114,128,126,117,121,117,127,135,101,109,117,124,130,125,117,122,155,126,118,113,122,116,119,98,122,113,120,128,115,119,119,135,128,105,120,127,118,121,103,121,114,129,120,129,126,125,138,120,122,101,119,113,126,119,117,122,124,120,116
126,118,121,107,121,120,119,129,127,126,122,118,115,134,119,116,105,116,120,106,121,125,122,117,133,123,119,116,108,107,122,118,122,125,117,116,119,136,126,139,121,120,127,141,123,130,115,110,115,120,118,97,101,104,115,122,128,129,124,140,164,169,143,124,123,117,121,114,110,105,112,108,115,120,119,98,115,112,113,124,124,124,124,137,118,151,119,132,118,125,116,114,124,122,125,117,110,116,124,118,119,119,121,120,112,125,119,111,111,104,111,109,131,119,122,138,136,171,151,126,111,120,122,118,117,109,126,126
120,122,121,130,118,98,96,106,117,116,123,130,122,132,150,134,111,128,117,121,113,113,115,118,138,119,123,129,140,105,105,115,101,109,123,108,114,117,131,120,116,123,122,120,118,118,125,106,120,128,124,127,128,124,120,128,121,119,118,110,113,122,133,119,118,120,123,120,123,113,115,108,121,118,117,133,145,127,117,125,120,126,120,131,117,128,126,111,124,126,122,120,121,105,122,122,125,119,118,126,110,127,117,124,108,121,123,114,134,123,111,114,147,123,118,116,112,138,107,112,127,122,120,128,123,133,117,127
114,128,121,119,121,118,123,121,133,110,121,148,126,123,117,127,120,126,115,100,107,121,117,114,120,118,122,133,138,119,121,122,117,125,124,112,120,120,123,119,123,122,117,113,121,113,123,122,113,122,121,132,119,149,116,113,114,125,129,114,127,106,114,117,119,118,114,110,118,159,130,122,126,123,112,122,120,119,138,133,118,120,123,111,115,120,117,110,125,130,126,120,122,120,113,122,121,119,114,99,104,121,117,115,121,117,122,129,124,141,126,117,115,123,119,123,117,110,119,119,128,126,122,121,122,103,122,130
117,120,124,122,128,125,132,118,123,115,120,116,115,118,121,112,128,124,122,134,124,108,119,121,127,123,120,118,115,115,115,110,118,118,120,136,132,123,129,125,124,118,120,104,111,132,115,113,122,121,124,118,122,100,117,119,125,133,121,120,124,114,122,126,102,122,123,128,140,119,110,113,136,116,114,103,103,103,131,124,117,118,125,120,121,117,124,120,117,123,113,121,120,113,124,114,106,117,126,129,137,115,116,114,123,122,122,112,115,124,119,115,119,120,116,118,116,98,116,122,116,127,125,143,130,126,132,119
128,120,121,111,122,123,111,128,113,118,121,105,119,121,128,114,123,124,123,132,111,120,135,134,119,123,121,116,130,119,110,103,118,116,119,105,115,125,115,124,121,118,121,121,109,123,130,119,117,131,123,124,125,117,113,109,111,110,119,120,122,117,123,110,115,123,121,124,118,115,125,138,116,120,122,122,116,147,139,107,115,117,119,121,135,131,116,116,124,128,122,110,121,126,125,111,122,115,119,115,115,116,127,120,115,123,120,123,131,119,117,117,125,126,125,111,109,123,122,130,119,119,114,116,113,128,118,114
101,120,122,114,132,121,123,123,123,113,125,125,118,127,121,117,121,122,118,115,128,119,120,121,119,127,123,112,99,104,117,127,113,117,121,127,141,122,132,124,124,120,123,136,122,119,125,117,119,122,122,119,119,115,118,117,129,127,121,108,117,123,123,132,118,124,123,120,105,130,115,115,122,119,120,131,135,125,122,110,136,126,123,114,116,120,135,125,115,112,119,115,115,119,115,116,118,126,117,142,126,98,109,116,127,120,122,107,113,148,130,120,121,125,122,113,120,107,147,112,122,120,121,121,121,103,126,131
118,122,119,118,120,120,116,115,117,121,122,104,110,102,120,125,123,130,125,138,119,106,121,119,114,117,117,112,118,102,125,119,119,115,122,117,114,86,119,119,132,124,120,121,113,127,119,127,119,119,123,125,117,144,126,122,124,123,117,117,124,166,116,109,106,123,122,132,117,86,125,127,135,116,122,123,121,115,122,120,117,119,120,119,121,123,116,117,112,131,122,123,121,115,116,118,130,122,116,120,120,130,122,140,120,118,122,120,117,124,137,107,118,120,123,122,124,100,114,109,117,126,123,121,128,240,147,136
116,123,123,116,117,115,109,103,119,117,120,101,101,117,120,120,121,125,126,173,165,141,138,131,119,125,119,110,100,173,120,108,121,119,121,121,120,113,113,123,113,118,116,110,106,118,143,118,126,119,121,135,130,124,109,131,123,122,123,115,122,110,100,129,122,125,117,127,125,109,133,113,123,119,127,145,128,163,125,122,125,130,123,117,119,86,116,121,110,120,118,121,124,129,131,127,130,120,120,119,110,104,115,108,109,120,124,144,145,137,126,126,124,127,121,118,120,124,123,116,121,128,120,111,108,102,107,118
111,113,120,119,137,124,137,117,125,125,123,130,121,136,147,127,109,129,122,118,122,115,115,125,114,120,121,122,129,119,125,121,117,120,121,135,128,176,119,119,115,119,125,134,113,100,132,119,132,122,121,122,123,132,109,119,115,124,126,121,127,104,128,122,132,122,120,101,103,125,102,123,120,111,120,139,129,90,120,122,120,126,120,108,117,125,126,133,106,122,123,121,120,125,117,115,121,122,117,118,122,121,113,122,108,119,124,111,129,145,135,120,121,123,122,142,135,138,127,115,117,121,116,127,115,92,109,104
123,121,121,120,114,105,116,127,122,123,118,112,130,162,125,113,115,122,122,117,124,102,120,124,137,125,122,143,128,124,122,133,126,120,120,107,89,115,115,118,102,116,121,130,128,134,128,123,126,122,122,114,113,111,115,117,107,120,115,110,116,98,113,105,143,122,123,123,117,149,137,152,107,120,120,115,117,116,116,122,123,126,120,123,128,126,121,111,110,122,124,121,110,111,117,125,121,120,116,124,117,97,116,121,117,116,121,120,124,119,129,124,126,125,119,110,116,116,130,114,132,119,120,119,121,104,124,129
119,111,122,121,120,125,105,130,118,125,118,109,111,127,132,118,126,120,121,151,138,98,127,129,115,118,122,123,120,169,121,121,120,124,121,120,121,117,112,118,123,124,119,109,115,104,117,112,96,112,120,114,124,167,124,132,132,128,122,139,107,99,99,119,99,117,126,127,128,122,128,108,128,121,112,115,125,153,123,130,116,125,123,117,114,115,117,113,111,122,122,121,121,114,116,115,142,116,120,134,124,124,126,128,111,119,121,130,125,159,127,121,112,127,120,116,122,123,128,127,117,120,121,118,116,123,112,106
120,125,120,133,125,119,117,110,126,123,123,142,123,126,125,122,123,119,120,121,121,123,117,117,116,118,125,144,120,121,120,119,122,120,115,123,123,136,114,120,120,120,127,117,135,138,130,116,114,124,116,119,123,131,126,124,132,121,124,120,111,115,121,121,123,118,120,116,122,135,118,121,113,119,121,138,126,98,118,114,126,122,120,114,113,161,133,117,120,123,118,110,115,112,117,117,126,120,118,138,122,129,118,119,90,112,122,133,120,135,111,122,113,129,123,118,119,120,158,127,119,120,119,121,122,119,112,131
122,120,118,126,127,104,115,115,115,123,128,143,119,158,126,115,118,122,121,116,122,122,125,124,119,124,118,142,124,118,121,121,122,118,120,92,105,117,120,118,124,124,120,136,132,115,115,123,113,125,133,131,114,98,126,122,121,122,111,113,120,136,143,117,123,117,121,103,110,109,112,117,121,120,123,131,126,173,124,120,121,122,122,128,116,119,122,115,127,127,121,116,122,105,119,132,114,119,121,124,123,120,118,113,119,120,121,125,120,117,117,112,122,121,121,129,129,134,119,128,129,127,123,100,122,118,137,115
140,120,120,118,119,126,102,140,123,122,122,134,120,148,122,108,108,123,119,122,127,135,128,126,119,123,122,122,115,125,114,124,143,120,123,135,126,107,134,104,114,119,120,120,125,173,119,126,104,119,120,125,113,93,116,116,132,129,125,122,122,119,126,136,121,112,116,114,117,130,117,116,124,119,121,140,129,129,111,127,123,124,116,118,113,138,131,115,123,120,125,121,122,146,120,124,119,121,120,120,122,122,123,125,122,125,123,117,121,128,122,115,120,122,119,122,119,107,118,115,122,124,127,111,125,111,117,118
122,125,111,129,124,112,134,118,117,112,125,141,126,122,123,126,126,122,121,116,126,111,116,109,119,126,123,116,117,119,121,125,120,117,119,117,116,114,125,123,122,123,123,127,123,126,118,114,115,114,120,124,125,127,123,139,120,129,122,123,118,104,133,113,116,116,120,120,119,106,111,123,118,121,120,123,115,153,121,126,119,123,121,123,123,145,121,121,123,120,121,122,121,110,116,137,117,118,119,122,119,109,117,121,114,119,118,88,119,133,121,104,129,120,126,147,112,109,122,121,122,122,118,114,118,109,117,119
121,119,122,99,109,107,100,116,137,119,117,127,115,123,116,122,115,126,125,158,175,132,134,117,112,128,124,122,114,110,104,116,127,111,119,117,113,110,129,132,115,118,121,143,123,157,114,117,131,123,122,119,117,125,101,122,119,120,120,119,121,122,124,120,124,125,122,129,126,121,120,110,130,111,119,112,120,96,112,117,117,124,121,130,117,123,124,117,119,122,121,116,120,114,111,126,131,120,118,100,101,117,120,119,117,121,121,123,125,137,114,113,121,122,121,114,124,188,126,117,140,124,120,133,111,150,139,126
121,124,122,129,133,103,124,111,121,118,121,115,118,121,119,102,120,121,121,114,116,109,118,126,120,122,123,129,139,116,118,125,129,127,116,119,119,137,149,116,131,117,121,125,119,140,128,119,116,126,122,129,122,133,128,125,125,124,121,140,118,118,119,112,85,113,119,110,106,110,116,119,143,117,123,116,119,118,118,123,121,126,123,119,125,117,124,126,134,127,121,117,117,106,113,125,115,118,119,116,114,122,106,114,132,122,122,125,125,126,145,130,107,121,121,108,119,124,118,114,126,124,122,136,120,110,116,122
119,123,119,115,118,136,122,113,120,118,119,114,134,111,119,113,117,124,123,122,109,121,123,128,120,117,122,110,121,111,115,127,121,123,116,115,115,134,126,117,130,117,121,166,149,72,107,112,127,129,126,123,120,130,136,136,115,125,119,95,112,110,123,117,114,112,119,159,127,91,102,112,121,119,122,120,135,116,135,132,119,123,122,123,119,124,143,112,115,116,121,119,119,113,116,124,123,121,124,123,127,105,119,132,121,123,123,122,123,121,118,118,118,120,116,110,117,120,113,109,141,118,119,129,131,103,115,122
133,117,124,120,120,133,134,124,120,119,119,114,115,121,120,110,119,126,120,129,126,117,122,126,120,125,119,102,115,117,105,117,120,126,124,153,127,133,143,122,122,117,120,118,122,124,144,129,119,121,121,122,121,108,119,124,112,123,125,121,118,122,113,104,132,113,111,126,127,104,120,124,122,125,128,129,122,144,126,115,123,125,121,119,121,117,113,127,124,124,117,126,121,117,119,123,122,121,127,123,122,121,123,122,120,118,115,115,119,115,119,105,121,127,117,122,121,128,124,125,120,123,128,125,121,123,123,121
121,120,119,123,122,133,123,127,122,117,120,126,119,116,119,124,119,123,125,123,129,126,120,117,120,123,109,119,119,116,120,116,120,121,121,120,122,120,120,119,121,120,123,123,123,120,123,121,117,120,122,124,120,124,118,118,121,123,118,124,121,126,122,119,122,124,124,122,117,119,123,94,122,121,122,128,123,123,122,119,119,118,116,119,120,121,120,134,120,125,127,124,124,119,118,127,120,119,128,127,136,128,117,120,121,119,111,115,112,117,121,130,121,119,122,123,121,122,121,114,121,125,118,125,118,128,119,137
120,121,123,124,120,122,121,121,123,122,135,122,123,116,121,115,119,122,103,119,122,119,119,113,117,121,127,122,112,123,121,124,126,119,119,124,127,119,122,126,121,121,124,122,141,118,121,116,118,120,123,122,121,122,124,121,117,123,122,122,117,123,119,127,127,123,123,124,114,115,116,109,121,118,120,120,113,119,123,120,118,125,120,121,123,124,119,117,123,123,122,122,117,121,122,129,116,121,120,122,125,121,123,115,122,120,122,122,125,125,120,118,125,120,124,122,119,119,120,125,122,126,118,120,120,121,122,118
119,121,119,122,118,119,117,109,120,118,121,121,120,120,126,122,119,120,120,121,111,125,120,120,121,123,121,122,129,136,122,113,122,117,121,120,111,114,120,123,114,118,121,122,120,123,122,113,129,126,122,123,126,107,119,131,116,121,120,121,116,123,118,117,121,119,126,121,120,118,122,126,127,121,111,122,113,122,121,124,126,122,123,121,150,123,121,124,118,124,127,121,115,122,122,118,116,120,114,123,140,115,118,106,135,121,122,122,135,123,126,156,104,119,121,121,116,119,117,100,123,124,119,120,121,120,122,132
123,123,122,123,129,120,121,117,119,116,121,122,137,121,120,126,123,119,120,120,117,120,120,116,108,124,121,120,122,118,122,126,127,123,123,122,121,125,121,121,120,120,116,120,122,119,124,125,118,122,123,124,118,118,121,121,127,123,121,122,126,119,120,123,120,124,122,122,113,119,121,116,122,121,120,122,120,121,120,117,120,123,123,121,119,120,123,126,120,119,119,121,120,121,121,120,117,122,123,122,120,120,122,121,121,121,121,122,123,122,124,126,123,121,121,122,116,121,120,120,119,124,121,122,122,120,121,125
123,122,121,122,122,122,122,121,119,118,121,121,121,121,122,112,122,121,121,121,121,122,122,136,118,125,121,122,121,120,119,113,120,121,121,122,122,121,121,111,119,119,121,121,120,121,122,122,121,124,120,121,120,120,120,120,118,123,121,122,119,120,121,125,121,121,121,122,125,121,122,119,119,121,121,122,120,120,120,120,122,121,121,122,121,120,119,114,117,123,121,122,121,120,121,120,121,120,120,121,118,120,121,120,122,121,121,124,138,121,122,126,119,122,121,122,120,121,120,116,120,126,120,121,121,121,120,119
120,120,120,122,121,121,120,111,121,118,121,122,122,122,122,122,119,122,121,120,120,121,121,124,121,123,120,121,121,121,122,118,122,126,119,121,121,120,123,123,119,118,121,122,120,121,121,119,121,124,122,122,120,121,121,119,122,124,120,121,123,121,121,122,120,120,121,122,121,121,122,123,124,116,121,122,120,120,121,121,119,121,121,122,122,121,122,113,118,122,121,122,120,120,121,121,120,117,121,122,121,121,122,122,119,120,121,122,121,121,120,121,122,122,121,122,122,121,121,121,120,118,121,122,121,121,121,122
119,122,120,121,121,121,123,120,121,123,120,121,121,121,118,120,124,123,121,123,121,121,121,120,118,121,121,122,122,121,121,118,119,121,120,121,121,121,121,121,120,121,121,122,121,121,123,120,121,125,120,121,121,121,120,125,121,122,120,122,121,122,121,121,119,123,120,121,120,120,122,122,122,119,121,122,121,121,122,119,120,121,121,122,121,121,121,121,119,118,120,121,121,121,121,119,119,119,120,121,121,121,122,116,122,122,121,122,121,121,121,119,120,126,121,122,120,120,122,123,121,121,121,122,121,121,118,120
123,121,121,122,121,122,123,120,123,120,121,122,122,121,121,119,119,123,120,121,121,121,121,123,118,117,121,121,121,121,121,119,121,121,122,122,121,121,122,120,122,120,121,122,122,121,120,121,120,117,121,122,121,121,120,119,121,122,120,122,121,121,126,124,118,119,119,121,121,121,119,114,121,123,121,122,121,122,121,120,119,120,121,121,121,121,121,123,124,119,122,122,120,121,121,118,121,122,120,122,121,121,117,117,123,121,120,122,122,122,123,121,119,121,122,121,120,121,119,118,119,125,121,122,121,121,121,123
121,121,121,122,121,121,123,119,123,119,121,122,121,122,121,120,118,121,122,122,122,121,120,117,119,123,120,121,121,121,121,121,120,120,121,122,121,121,122,120,122,121,120,121,121,121,121,121,121,121,121,122,121,121,122,117,120,125,121,122,122,121,120,120,120,120,121,122,121,120,120,123,121,122,121,122,120,120,120,119,120,123,121,122,122,122,123,119,120,124,121,122,122,121,119,117,121,123,120,121,121,121,122,121,121,121,121,121,122,121,122,116,120,124,120,121,120,121,120,119,122,120,122,122,121,121,124,125
117,119,120,121,121,121,122,129,124,121,122,122,122,121,122,120,119,121,120,121,122,122,121,121,120,126,121,122,121,121,120,116,121,117,121,121,121,122,126,126,121,122,121,122,121,120,119,120,119,122,120,122,121,122,122,115,121,124,121,122,122,121,120,118,119,118,120,122,121,121,121,120,121,118,121,122,121,121,122,121,120,124,120,122,121,121,122,124,121,124,122,122,120,121,122,121,119,122,120,122,121,121,122,124,120,121,121,122,122,122,124,117,122,121,120,122,121,121,120,121,122,124,121,122,122,121,119,119
118,123,121,121,120,120,121,123,121,122,121,122,121,122,123,118,121,121,121,122,121,121,121,122,121,122,121,121,120,121,121,119,121,122,121,121,120,121,121,119,121,118,121,122,121,121,122,118,121,124,121,122,121,121,122,125,121,119,121,121,121,121,122,117,122,123,121,122,121,121,122,120,119,120,121,122,121,121,121,117,122,123,121,122,121,121,121,122,120,127,120,122,121,121,120,124,120,121,121,122,121,121,122,117,121,117,120,122,121,120,121,117,120,118,120,121,121,121,121,124,124,123,120,122,121,121,121,118
120,120,120,121,121,121,121,125,120,121,122,121,121,121,121,120,122,120,121,121,121,122,125,118,118,119,120,121,121,121,121,122,125,121,121,122,121,122,123,121,119,120,121,122,121,121,121,124,123,119,121,122,121,121,122,123,118,121,121,122,121,121,121,120,121,122,121,121,121,121,121,120,121,120,122,122,122,121,121,119,119,123,121,122,122,121,121,123,120,120,120,123,121,121,122,119,121,122,121,121,120,121,121,122,121,121,121,123,120,120,120,119,122,121,121,122,121,120,121,122,120,121,121,122,121,121,121,120
122,122,121,122,121,120,121,119,121,121,120,121,121,121,121,121,119,121,121,122,121,121,120,121,121,120,121,122,121,121,122,120,119,118,121,121,121,121,120,119,122,120,120,122,121,121,123,122,120,125,121,122,122,121,121,120,121,122,121,121,121,121,122,120,120,119,121,122,121,121,121,119,119,124,121,122,121,120,121,116,122,121,121,121,120,120,120,123,119,122,121,123,121,121,121,120,119,123,120,121,121,121,122,120,120,122,120,122,121,121,121,120,121,125,121,123,121,122,122,123,121,122,121,123,122,121,121,119
120,123,120,121,121,121,121,123,123,122,121,122,121,121,121,119,119,120,121,122,121,121,121,119,119,124,121,122,121,121,122,121,122,122,121,121,121,121,122,121,119,120,121,122,121,121,123,120,119,123,120,122,121,121,121,122,120,126,120,122,121,120,120,118,120,120,121,122,121,121,121,120,120,118,121,121,120,121,123,118,121,122,121,122,121,121,121,121,121,124,120,122,122,121,121,122,119,119,120,122,121,121,121,112,120,120,121,122,121,121,121,119,121,121,121,122,121,121,121,120,120,123,121,122,122,122,122,120
119,115,121,122,121,121,121,119,120,120,121,122,122,122,122,116,121,123,121,121,120,120,123,122,120,125,121,122,122,121,121,121,123,120,122,122,121,121,122,122,119,116,120,121,121,121,122,118,122,124,121,122,122,121,121,123,120,124,120,121,121,121,122,122,121,122,122,122,120,120,121,120,120,118,120,121,121,121,121,120,120,123,121,122,121,121,122,121,122,120,121,121,121,121,122,120,121,121,121,122,120,120,120,123,119,121,120,121,121,121,121,128,120,119,120,122,121,121,121,106,121,122,121,121,120,121,122,120
122,122,121,121,120,120,121,123,121,122,121,123,122,122,120,117,120,119,121,122,121,122,122,126,121,124,120,121,121,121,120,121,120,119,121,122,121,120,121,121,121,124,121,122,121,121,122,118,121,123,121,121,120,121,122,124,118,120,120,122,122,121,121,118,121,121,120,121,121,121,121,118,121,119,120,121,121,121,122,121,119,122,121,121,120,121,121,115,120,125,121,122,120,120,121,124,122,117,121,121,120,120,121,121,122,122,122,122,121,121,121,117,118,119,120,121,121,121,122,121,119,124,121,122,122,121,121,120
121,121,121,122,122,121,121,117,121,120,121,121,121,121,121,121,122,124,121,122,121,121,123,122,119,122,120,123,121,121,121,122,121,120,121,122,121,121,122,121,122,120,121,121,121,122,120,117,120,122,122,122,121,121,122,121,121,125,121,122,121,121,120,125,122,121,121,121,121,121,121,119,121,121,121,122,122,121,121,119,121,124,121,122,121,121,121,121,118,120,120,121,121,121,123,122,122,120,121,122,121,121,121,120,121,119,121,122,121,120,120,119,120,121,121,122,121,121,122,121,122,127,120,122,122,122,122,125
121,119,121,122,121,121,120,117,121,119,119,121,121,121,121,119,119,120,121,122,122,121,120,120,120,121,121,122,121,121,121,123,121,124,120,121,121,121,122,121,120,121,121,122,121,121,122,118,119,125,121,122,121,120,121,120,119,122,120,121,120,121,121,121,119,120,121,121,121,121,121,120,121,120,121,122,121,120,120,118,122,126,120,121,121,121,121,119,121,121,121,121,120,121,122,124,119,122,121,121,120,121,121,121,123,118,120,122,122,122,121,118,119,121,120,121,121,121,122,121,121,125,120,121,120,120,120,122
121,120,122,122,122,122,121,119,121,122,121,122,122,121,121,117,120,119,120,121,121,121,122,122,121,123,121,122,120,120,121,120,120,124,121,122,121,121,123,121,120,117,121,122,121,121,120,113,120,122,121,122,121,121,121,127,121,122,122,121,120,121,121,118,121,120,121,122,121,120,121,118,119,118,120,121,121,121,120,118,120,126,121,121,121,121,122,121,118,124,121,122,122,121,121,120,122,122,122,122,121,120,120,120,123,121,121,123,122,122,121,120,119,118,121,122,121,121,121,120,120,123,120,121,120,120,121,123
123,118,120,121,121,121,122,121,121,122,121,122,122,122,121,120,120,125,121,122,121,120,121,122,120,123,120,122,121,121,122,123,120,121,120,121,121,121,121,121,121,120,120,121,121,120,121,122,121,125,121,122,121,122,122,119,121,122,120,121,121,121,122,112,121,122,121,121,121,121,121,124,120,119,120,121,121,121,122,130,119,123,121,121,121,121,122,115,120,125,121,122,121,120,121,118,120,122,122,123,122,121,120,119,121,119,121,122,121,121,122,115,121,126,121,122,122,122,121,124,124,126,120,122,121,121,121,126
121,121,120,122,121,121,121,121,120,119,120,121,121,121,121,118,121,123,122,122,120,120,121,123,121,125,121,122,121,120,121,128,121,123,120,121,120,121,121,118,120,120,121,122,121,121,120,119,120,124,121,122,122,121,121,122,118,121,120,122,121,121,122,122,122,119,120,121,121,121,124,122,122,120,122,121,121,121,121,122,120,125,121,121,121,121,121,118,122,123,122,123,121,121,121,120,122,120,121,122,121,120,120,118,121,119,120,121,121,121,121,123,120,124,121,122,122,121,121,121,120,123,121,122,121,122,125,123
120,124,121,121,120,120,120,121,121,122,121,122,121,121,120,118,121,121,121,122,121,121,122,118,119,122,121,122,121,121,121,122,121,122,121,122,121,120,121,119,120,116,121,122,120,120,121,119,122,121,121,121,121,121,121,122,120,124,120,121,121,121,121,121,120,120,121,122,121,121,119,120,121,122,120,121,121,121,121,118,121,121,120,121,121,121,122,118,120,120,121,121,121,121,121,124,122,120,121,122,121,122,123,121,121,119,121,122,121,121,121,118,121,124,121,122,120,120,121,119,119,121,121,122,120,120,121,120
121,121,122,121,121,122,122,119,120,122,122,122,122,121,120,119,122,121,121,122,121,120,121,123,119,129,121,122,120,121,122,122,120,122,120,122,122,122,122,119,121,120,122,122,121,120,120,118,120,122,121,122,122,121,121,120,121,122,120,122,121,121,122,123,120,118,121,122,121,121,122,119,119,121,121,122,121,121,120,118,120,121,121,122,121,121,120,118,121,125,120,121,121,121,122,119,120,119,121,122,121,121,121,118,123,121,121,122,121,121,121,120,118,122,120,121,121,122,123,122,121,126,120,121,121,121,121,121
120,122,121,122,121,121,122,121,120,115,121,122,121,121,121,119,121,126,120,121,121,121,122,122,120,122,121,122,122,121,121,119,121,119,120,121,121,121,121,123,120,119,121,122,121,120,121,119,121,127,120,121,121,121,121,119,120,124,121,122,122,121,121,122,120,119,119,121,121,121,121,116,120,120,121,122,122,121,121,125,121,123,122,122,121,121,122,121,121,121,121,122,121,120,121,117,121,122,121,122,122,120,120,119,121,119,120,121,121,121,122,121,119,122,121,122,121,120,120,121,120,122,121,122,122,120,121,123
120,124,120,121,121,121,121,121,122,120,122,122,122,121,121,115,119,115,121,122,121,121,121,109,121,124,120,121,121,121,122,122,119,118,121,122,121,120,119,121,121,123,121,122,121,121,120,120,119,120,120,121,121,121,121,121,123,121,121,122,122,122,122,120,121,123,121,121,121,121,121,118,121,121,122,122,120,121,121,114,120,122,121,122,121,120,122,120,123,126,120,122,121,121,122,121,119,116,120,122,121,122,121,119,121,120,122,122,121,121,120,126,120,120,121,122,121,121,123,121,120,124,121,121,121,121,122,122
119,118,121,122,121,121,120,117,119,122,119,121,121,121,121,124,121,121,121,121,121,121,121,123,123,125,121,121,121,121,122,122,120,119,120,121,121,121,122,121,122,115,120,121,121,121,121,120,119,125,120,121,122,122,121,120,120,125,120,122,121,121,122,124,124,123,122,122,122,122,121,123,120,122,120,121,121,121,121,120,120,119,121,122,122,121,120,117,120,120,120,122,121,121,122,121,122,118,121,122,121,122,122,121,120,119,121,121,121,121,121,119,120,122,121,122,121,120,120,119,121,124,120,122,122,121,122,122
121,117,120,121,121,121,122,121,121,118,121,121,121,121,120,119,120,124,120,122,121,121,122,121,120,124,120,121,121,121,121,120,120,120,121,121,121,122,122,117,121,121,122,122,121,121,121,120,120,123,121,122,121,121,120,122,124,123,122,122,121,121,121,122,120,119,121,122,122,121,121,119,122,124,121,122,122,121,121,118,120,122,121,122,121,122,122,121,121,121,120,122,121,121,122,124,119,119,121,122,121,121,121,119,123,118,121,122,121,122,121,122,117,120,121,122,121,122,121,119,120,126,121,122,121,121,122,122
121,122,121,122,121,120,120,120,119,118,121,122,121,121,121,120,120,121,121,122,121,121,120,120,121,129,121,122,121,121,122,119,119,120,121,122,122,121,121,120,122,118,121,121,121,121,122,120,121,123,120,121,121,121,123,121,120,123,121,122,121,121,122,122,122,122,121,122,121,121,121,119,121,122,121,122,121,121,120,120,120,121,121,122,122,121,121,121,119,117,121,122,121,120,121,119,122,121,121,122,121,121,120,120,119,120,121,122,121,121,121,118,121,125,121,121,121,121,121,123,119,123,121,122,122,120,121,121
123,119,120,122,121,121,121,124,121,119,121,122,122,121,122,120,120,126,121,121,120,121,121,118,119,123,121,122,120,120,121,120,120,123,120,122,121,121,122,122,120,117,120,122,122,121,121,119,123,121,121,121,120,121,121,117,121,127,121,122,121,121,120,123,119,117,120,121,121,122,121,120,120,119,121,121,121,121,121,122,119,121,121,122,121,121,122,120,121,124,121,122,122,122,122,122,121,119,121,122,121,120,121,119,120,124,121,122,121,122,121,122,121,123,121,122,122,121,120,119,119,123,121,121,121,121,122,121
118,118,121,122,121,121,121,124,122,120,121,122,122,121,121,121,119,122,121,122,121,120,120,122,121,121,121,122,122,122,121,121,121,121,121,122,121,121,123,118,123,115,122,122,121,121,121,113,119,125,120,122,121,121,121,122,119,124,120,121,121,121,121,121,123,118,121,122,122,121,121,119,121,117,121,122,121,121,121,118,122,127,121,121,120,120,121,120,119,126,120,122,121,121,122,120,122,122,122,122,121,122,121,121,123,120,121,121,121,121,121,126,120,120,121,122,121,122,121,116,120,122,121,123,121,121,121,120
120,126,120,122,121,121,121,122,119,121,120,122,122,122,121,118,120,118,121,122,121,121,121,119,120,126,121,122,122,121,120,122,120,120,121,122,121,121,121,119,121,119,120,121,121,121,122,122,120,120,121,121,120,120,121,121,120,124,121,122,122,121,121,119,119,122,121,121,120,121,121,114,123,118,122,122,122,122,123,124,120,122,121,122,121,120,120,123,121,125,121,121,120,120,121,120,121,119,121,122,120,120,121,117,120,123,121,122,122,121,121,120,119,124,120,121,121,121,121,121,121,125,121,121,120,121,121,121
124,119,121,121,121,121,121,122,120,119,120,121,121,121,121,121,120,124,121,122,121,121,121,118,118,122,120,122,121,121,122,123,121,119,121,122,122,121,120,120,122,120,122,122,121,120,120,119,121,123,121,121,120,120,121,119,121,125,121,122,120,120,121,119,120,120,121,122,121,121,121,119,121,122,121,122,120,121,121,119,120,125,122,121,121,121,121,119,121,121,120,121,121,121,121,123,121,118,121,121,121,121,121,121,121,119,121,122,121,120,121,120,121,126,120,122,122,121,121,119,118,124,121,122,122,121,121,120
122,122,122,122,120,121,122,117,121,121,121,122,121,121,120,119,123,125,122,122,121,120,121,121,120,124,121,122,122,121,121,122,122,121,120,121,121,121,121,117,121,120,121,122,121,121,120,124,120,126,121,122,121,120,121,119,119,124,121,122,121,121,121,121,122,121,121,122,122,121,121,121,120,117,121,122,122,122,122,118,121,123,121,122,122,122,121,119,119,122,121,122,121,121,121,119,120,121,121,122,121,120,120,121,120,119,120,121,121,121,121,119,121,121,120,121,121,121,121,121,121,127,120,121,121,121,121,119
122,119,120,121,121,121,121,123,120,118,121,122,120,120,120,118,121,122,121,121,120,121,121,119,121,123,121,122,121,120,121,119,121,124,121,121,121,121,121,120,120,121,121,122,121,120,121,120,121,120,121,122,121,121,122,121,120,123,121,122,121,121,121,120,121,124,121,122,122,121,121,120,119,116,121,122,122,121,121,125,123,121,121,121,121,121,121,119,117,127,120,122,121,121,120,117,120,121,121,121,121,121,121,121,121,121,121,122,122,121,120,113,122,121,121,121,121,121,121,114,119,124,121,122,121,121,121,127
121,117,120,121,121,121,121,114,121,122,120,122,121,121,121,118,120,124,121,122,120,121,121,125,122,123,121,122,121,120,121,122,121,121,121,122,121,121,120,116,122,121,121,123,122,121,121,122,120,123,120,122,121,121,121,118,120,122,120,121,121,121,122,126,123,124,120,121,121,121,121,122,122,120,122,121,121,122,122,110,120,118,121,122,121,120,121,120,121,122,121,122,122,121,121,121,122,117,120,121,121,121,121,120,120,124,121,122,122,121,120,119,119,122,121,122,121,121,122,119,120,122,121,122,121,121,120,120
120,120,120,121,121,121,121,121,119,121,121,121,121,121,121,120,121,125,121,122,122,120,120,122,120,124,120,121,121,121,121,119,119,121,121,121,121,121,121,122,121,119,121,121,121,121,122,120,118,120,121,122,121,121,121,121,120,122,121,122,121,120,121,121,121,117,121,122,121,122,122,116,120,120,121,122,120,120,121,122,122,122,122,122,121,122,121,118,120,120,121,122,122,121,121,119,123,119,120,121,121,121,123,119,120,124,121,121,120,120,121,119,123,122,120,121,121,121,121,121,119,124,121,122,121,121,120,121
120,116,121,122,121,121,121,123,119,122,120,122,121,121,121,117,124,122,121,122,122,122,122,121,122,123,121,122,122,121,122,122,119,118,120,122,122,121,121,119,121,119,121,122,121,120,121,119,118,123,121,121,121,121,124,124,120,122,121,123,122,121,122,119,120,123,122,122,120,120,121,119,121,118,120,122,121,121,121,120,121,125,121,122,122,122,122,119,120,121,120,122,121,121,121,123,119,118,121,122,122,121,120,120,120,120,121,121,121,121,121,120,120,125,121,121,120,121,121,121,121,118,121,122,121,121,122,123
120,117,121,122,120,120,121,119,120,121,121,122,121,121,121,118,121,123,119,121,121,121,121,119,122,127,120,122,122,121,121,120,121,121,121,122,122,121,121,120,120,116,121,122,121,121,120,120,121,123,121,121,120,121,121,119,119,125,121,122,121,120,121,118,119,119,121,122,121,121,122,122,121,119,121,122,122,121,121,121,119,121,121,122,121,122,121,120,118,127,120,122,121,121,121,119,121,122,121,122,122,121,120,119,119,117,120,122,122,121,121,120,121,118,121,122,121,121,121,118,119,123,121,122,121,120,120,120
120,120,121,122,121,121,121,118,123,125,121,122,122,120,121,124,120,121,120,121,121,121,123,122,121,123,121,122,121,120,120,123,121,121,121,122,121,120,121,120,120,119,121,122,122,122,122,121,120,121,121,122,121,122,122,121,122,125,121,122,121,121,122,120,121,123,121,122,122,121,120,122,121,122,120,121,121,121,121,121,119,119,121,122,121,121,121,118,121,125,121,122,120,120,121,119,120,120,121,122,121,122,122,119,120,122,122,122,120,121,121,120,122,125,121,122,121,120,120,121,120,122,121,122,121,121,121,120
121,117,121,122,121,122,121,123,119,118,121,122,121,120,120,119,121,125,121,122,122,122,121,120,119,119,121,122,121,121,121,118,122,119,121,122,121,121,121,117,120,117,121,122,122,122,121,118,120,122,121,122,121,121,122,122,122,126,120,121,121,120,121,124,121,124,120,121,121,121,121,124,120,117,122,121,121,121,122,116,119,120,121,122,121,122,122,121,121,120,122,122,121,120,121,124,120,122,120,121,120,121,121,118,120,120,122,122,120,121,121,121,119,123,121,122,121,120,121,122,120,120,122,122,120,120,122,123
119,119,121,122,121,121,121,116,121,120,121,122,122,121,120,121,121,120,121,121,121,121,121,120,122,124,120,121,121,121,121,121,118,121,121,121,121,121,121,116,122,121,121,122,122,121,122,122,120,119,120,122,121,121,121,122,119,122,121,122,121,121,121,120,121,118,121,122,121,121,120,121,120,120,121,121,120,120,120,121,120,124,121,122,120,120,121,117,120,129,121,122,121,121,121,121,124,120,121,122,122,122,122,120,120,116,121,122,121,121,121,119,120,128,120,121,121,121,121,120,121,121,121,122,121,120,121,120
120,116,121,122,122,122,121,118,121,121,121,122,122,121,121,122,122,123,121,121,121,121,121,119,124,124,120,122,121,121,121,123,119,117,121,121,121,122,121,119,120,123,121,122,121,121,121,120,118,123,121,122,121,121,120,120,120,122,121,122,121,121,120,120,120,116,121,122,121,121,121,120,120,120,122,122,120,120,120,119,118,126,121,122,121,122,121,118,121,126,121,122,121,120,121,122,123,119,120,121,121,121,121,118,120,121,121,122,122,121,122,119,123,123,120,121,121,121,122,124,118,121,121,122,121,121,121,120
120,124,122,122,121,121,124,123,122,121,122,122,121,121,121,119,123,121,121,122,121,121,121,122,121,122,121,122,121,121,121,119,120,121,120,122,121,121,122,120,119,117,120,122,121,121,120,119,118,120,121,122,122,122,121,120,121,119,121,122,121,122,122,122,120,115,120,122,121,121,121,119,120,125,121,122,121,121,121,117,120,120,121,122,121,121,123,121,119,123,121,122,121,121,121,119,119,120,122,122,121,121,121,121,122,119,121,122,122,122,121,119,121,125,121,122,122,121,121,120,120,122,121,122,121,121,122,121
120,122,121,122,121,121,121,116,121,121,121,121,121,121,120,122,120,123,120,121,121,121,121,122,121,122,121,122,121,121,122,119,119,116,121,122,121,122,121,122,121,118,121,122,121,120,121,120,121,124,122,122,121,121,122,120,120,123,121,122,122,122,122,121,123,121,120,121,121,121,121,119,120,121,121,122,121,121,121,125,120,119,121,122,122,121,120,121,120,125,121,123,122,121,122,122,120,121,121,122,121,120,120,118,121,118,120,121,121,121,121,124,120,121,121,122,122,121,120,120,120,122,121,122,121,121,122,118
121,126,121,122,122,122,121,117,122,121,121,121,121,121,121,120,119,120,122,122,120,120,121,120,121,121,121,123,121,121,121,119,122,116,122,122,121,121,122,119,119,122,121,122,121,120,120,121,120,122,121,121,121,121,121,121,121,122,121,122,122,121,121,120,122,121,122,123,122,121,122,123,120,119,121,122,121,120,120,115,123,120,121,122,121,121,120,121,120,127,120,122,121,122,122,120,120,120,122,121,120,120,121,117,120,121,121,122,121,122,121,120,119,122,121,122,121,121,121,114,120,126,121,122,121,120,121,122
121,119,121,122,122,121,120,113,120,118,121,122,121,121,121,120,120,121,121,122,121,121,121,121,120,126,120,122,121,121,122,124,120,122,121,122,121,121,120,120,119,118,122,122,121,121,121,120,123,116,121,122,122,122,122,116,119,129,121,121,121,121,121,123,124,119,120,121,121,121,123,125,121,116,121,122,122,122,121,116,119,123,121,122,121,121,121,140,121,126,120,121,121,121,122,117,119,119,120,122,121,122,121,115,121,121,121,122,121,122,121,119,121,121,120,122,121,122,122,121,120,121,122,122,121,120,123,120
121,120,121,121,121,120,121,122,120,119,120,122,121,121,121,120,121,122,121,122,122,121,120,120,119,121,121,122,121,122,121,120,121,119,121,121,120,121,122,119,121,121,121,122,121,120,120,118,122,125,120,122,121,121,122,122,119,122,121,122,121,121,121,121,122,121,121,121,121,121,121,117,120,119,120,122,122,122,122,119,120,124,120,121,121,121,122,123,119,125,121,122,121,121,121,121,122,121,120,121,121,121,121,119,120,118,120,121,121,121,121,118,121,121,121,122,120,121,121,122,120,122,121,122,121,121,120,121
121,124,121,122,121,120,121,116,122,120,121,122,122,120,120,120,120,123,121,122,121,121,121,119,121,121,121,122,121,122,122,122,122,117,119,121,121,121,122,119,121,121,121,122,121,121,121,120,119,120,121,122,121,121,122,120,120,126,121,122,122,121,121,120,119,118,121,122,122,120,121,120,121,122,121,122,121,121,121,117,120,123,121,121,120,121,121,120,122,122,121,122,121,120,121,121,120,121,121,123,121,120,121,120,120,121,121,122,121,120,120,120,119,121,122,122,121,120,121,122,119,124,121,122,121,121,121,121
121,121,121,122,121,121,121,118,121,117,121,122,121,120,121,120,119,124,121,121,121,121,121,118,121,121,122,122,120,120,121,123,122,126,122,123,122,121,121,121,119,120,121,122,121,120,120,120,119,122,120,121,121,122,122,121,119,118,120,122,122,122,123,118,122,116,121,122,122,122,122,124,121,120,121,122,121,121,120,118,119,123,122,122,120,120,121,119,122,124,120,122,121,121,122,125,121,118,120,121,121,121,121,118,121,119,119,121,121,121,121,118,121,122,120,121,121,121,122,120,118,123,120,121,121,121,121,120
121,117,121,121,121,120,121,122,120,122,121,121,120,120,121,120,120,123,122,122,121,120,120,118,120,124,121,121,121,121,120,122,121,123,121,121,121,121,122,118,122,119,122,122,121,121,121,121,119,124,121,122,120,120,121,118,120,119,120,122,121,121,120,119,119,121,121,122,121,121,122,120,122,122,121,122,121,122,121,129,120,122,120,121,121,121,122,110,119,118,121,122,122,121,121,120,120,120,121,122,122,120,120,119,121,120,121,122,121,122,121,118,122,125,121,121,120,121,121,119,122,123,121,121,120,120,121,122
119,119,121,122,122,122,121,119,120,118,121,121,121,121,121,123,120,121,121,122,121,120,120,125,118,121,120,122,121,121,122,121,122,123,121,122,122,120,120,117,120,122,120,122,121,122,123,121,119,125,121,122,122,121,121,126,122,121,121,122,122,122,121,121,119,120,120,121,121,121,121,118,121,118,121,122,121,121,121,120,121,120,122,121,120,121,121,118,120,124,121,122,121,122,124,124,121,121,121,122,121,121,121,121,119,117,121,122,121,121,121,119,120,125,119,121,121,121,121,121,122,120,122,123,121,121,121,122
121,119,120,122,121,121,122,118,120,121,121,122,122,121,122,121,119,119,120,122,121,122,121,119,121,124,121,122,122,122,122,122,121,122,121,121,120,121,121,124,121,119,120,122,121,121,121,122,121,121,120,122,121,121,121,120,120,124,121,122,121,121,121,119,121,120,121,121,121,120,121,121,121,118,121,122,121,121,121,119,120,124,121,122,121,120,121,119,120,120,121,122,121,121,122,125,121,119,121,122,120,121,121,120,121,124,120,122,121,121,121,119,120,122,120,121,121,121,121,122,121,124,120,121,121,121,122,120
121,118,121,122,122,121,121,121,123,120,121,121,120,121,121,121,119,125,121,121,121,121,121,121,120,118,121,122,122,121,122,122,122,119,121,122,121,121,121,121,122,122,121,122,121,120,121,118,119,124,121,122,122,121,121,123,120,125,120,121,121,121,122,118,122,120,121,122,121,121,120,120,118,121,121,122,122,121,121,118,120,120,120,121,121,121,122,122,121,124,121,122,121,120,122,119,121,121,120,121,121,121,121,120,121,123,120,122,121,121,121,119,120,123,121,122,121,121,122,120,120,120,121,121,121,121,122,122
120,119,120,122,122,121,120,119,123,121,121,122,122,122,122,122,121,125,120,122,121,121,121,119,120,123,121,122,121,120,121,121,121,124,121,122,121,120,120,114,121,117,121,122,121,120,121,117,119,120,121,122,122,122,121,120,119,121,121,122,121,121,121,122,122,118,122,122,121,121,123,117,121,122,121,122,121,121,121,123,120,125,120,121,121,121,121,119,121,121,121,121,121,121,123,122,120,121,121,122,121,121,121,117,121,120,120,122,121,121,122,124,119,123,120,121,121,121,121,119,119,118,121,122,121,121,122,119
121,117,121,122,121,120,120,119,120,120,119,121,121,121,121,112,122,124,121,123,121,121,122,123,120,124,120,121,121,121,122,115,123,119,121,121,121,121,120,122,120,121,120,121,121,121,121,122,120,125,121,122,121,120,121,121,119,123,121,122,121,121,120,122,121,117,121,122,122,122,122,114,120,121,120,122,121,121,121,118,119,125,122,122,121,121,122,122,120,124,121,122,122,121,121,122,122,119,120,121,121,121,121,105,122,120,120,121,121,121,122,123,120,123,121,121,120,121,121,129,120,123,120,121,121,121,121,116
120,118,120,121,121,121,122,119,121,118,121,122,121,120,120,131,120,121,122,122,121,121,120,117,121,121,121,122,121,121,120,117,120,121,120,122,121,121,121,122,123,115,121,122,120,120,121,120,122,125,120,122,121,121,121,120,119,125,120,121,121,121,121,117,122,120,122,122,120,121,121,119,121,123,121,122,121,120,120,123,121,120,121,122,120,121,121,121,120,121,120,121,121,121,121,120,123,120,122,122,121,121,121,123,119,121,121,122,122,121,119,119,122,125,120,121,121,121,121,118,121,123,121,122,121,121,122,121
121,123,121,122,122,122,121,122,120,120,121,122,121,121,121,119,119,120,121,122,121,122,122,119,122,122,121,121,121,121,122,120,121,122,121,121,120,121,121,121,119,121,121,122,121,121,121,119,118,122,121,122,122,121,120,122,121,117,120,121,121,121,122,119,121,122,120,121,121,121,121,119,122,123,121,122,121,122,122,122,119,122,121,121,121,121,122,122,121,124,120,121,121,121,122,121,120,120,121,121,120,121,121,121,122,127,121,122,122,122,121,118,118,123,120,121,121,121,121,121,121,124,121,122,122,121,121,121
121,118,120,122,121,121,122,118,120,116,121,122,121,121,122,123,123,123,121,122,121,121,121,120,119,122,121,122,121,122,122,122,120,117,121,122,121,121,121,120,119,120,120,122,121,121,122,121,121,124,121,122,121,120,121,119,119,119,120,122,121,121,122,121,122,117,121,121,121,121,120,120,120,121,121,122,122,121,122,118,123,122,121,122,121,121,121,121,118,120,121,122,121,121,122,120,120,122,121,122,121,121,120,120,121,118,121,122,121,121,120,118,121,122,121,122,121,121,122,121,120,119,121,122,121,121,121,119
121,120,121,122,122,120,120,122,120,118,121,121,120,121,121,120,121,125,121,123,121,121,122,120,119,127,121,122,122,121,122,119,121,118,121,122,121,120,120,121,122,122,121,122,120,120,121,124,120,120,121,121,121,121,121,119,121,125,121,123,121,121,122,122,122,122,120,121,121,121,121,122,122,121,121,122,121,122,121,115,118,121,121,121,121,121,121,125,127,125,121,122,121,120,121,117,118,122,120,121,121,121,121,112,120,120,120,121,121,121,121,112,119,123,121,122,121,121,122,122,120,119,120,122,121,121,122,123
121,119,120,121,121,121,121,119,121,120,121,122,121,120,121,116,119,120,120,121,121,121,122,132,121,126,120,121,121,121,121,118,122,120,122,123,122,121,123,116,120,118,120,122,121,121,121,121,122,121,120,121,121,121,122,123,121,124,120,121,121,121,122,118,121,122,121,122,122,122,122,120,122,118,121,121,121,121,121,119,121,120,120,121,121,120,121,124,120,126,121,123,121,120,120,120,120,119,121,122,122,121,122,122,120,120,120,122,121,121,122,122,121,121,121,122,121,121,121,115,121,120,121,122,120,120,121,122
121,123,121,122,122,121,121,109,119,119,121,121,121,121,123,122,122,122,121,122,121,120,121,123,121,122,121,122,122,121,120,119,120,119,121,122,121,122,121,120,121,120,121,122,121,121,122,121,120,125,121,122,120,120,121,118,121,122,121,122,122,121,120,119,120,117,121,122,121,121,121,120,121,126,120,122,121,122,122,119,120,128,120,122,121,121,122,120,119,122,121,122,121,121,122,120,120,119,121,122,122,120,120,119,122,120,120,121,121,121,121,121,120,120,120,122,121,121,122,121,120,125,121,122,122,121,120,119
119,116,120,121,121,121,122,123,121,122,121,122,121,121,122,120,119,123,120,122,121,121,121,118,121,124,121,121,120,121,121,122,122,120,121,122,121,121,120,121,120,120,120,121,121,121,121,119,125,124,121,122,121,121,122,123,119,124,121,122,120,120,122,121,121,120,121,122,121,121,121,120,122,122,121,122,122,120,120,120,120,124,122,122,121,121,121,123,120,124,121,122,121,121,120,118,122,120,121,121,121,121,121,122,121,123,121,122,121,120,121,120,119,124,121,122,121,120,121,118,120,119,120,121,121,121,121,120
121,118,120,121,121,121,121,123,120,121,121,122,121,120,120,117,119,121,121,122,121,121,121,120,122,122,121,122,121,121,121,119,122,124,121,121,121,121,121,119,120,115,120,122,121,122,122,120,119,123,121,122,121,121,121,121,121,124,121,123,121,121,121,121,119,118,121,122,121,122,122,120,121,120,121,122,121,121,122,118,122,122,121,122,121,120,121,119,119,120,121,122,121,120,120,122,118,124,121,122,121,120,122,120,121,118,120,121,121,122,121,122,120,127,121,122,121,121,120,120,121,121,121,122,121,121,121,123
122,120,121,122,122,122,125,129,120,121,121,122,121,120,121,117,120,120,122,121,120,121,121,118,120,121,121,122,121,121,121,114,119,119,121,122,121,121,123,128,121,121,122,122,120,121,123,113,122,124,120,122,121,121,118,110,123,123,121,122,120,120,119,115,118,119,121,122,122,124,125,130,120,120,122,122,125,123,124,139,120,120,127,123,116,123,113,91,119,124,110,117,121,123,129,151,120,122,130,118,114,119,118,120,125,121,116,127,122,121,121,130,113,121,123,122,112,116,118,100,116,123,123,125,128,128,134,139
120,120,120,119,133,120,114,89,117,117,118,118,114,120,120,123,119,124,118,122,122,118,115,96,119,125,122,122,122,124,124,119,120,122,125,122,114,119,115,118,121,120,118,121,122,128,128,142,111,124,122,122,121,117,122,118,116,123,122,122,120,123,124,132,115,118,121,121,117,117,121,123,135,117,118,121,118,121,119,109,115,121,123,122,129,117,118,154,124,128,121,124,106,121,127,134,110,119,120,120,128,118,111,87,139,118,122,121,110,119,124,132,101,120,121,122,117,120,119,120,138,123,121,120,120,126,122,123
119,121,122,120,84,118,118,101,121,121,119,121,124,123,129,114,102,121,127,124,129,116,125,127,140,123,116,119,110,117,116,136,131,124,125,123,106,124,131,112,115,118,120,121,134,137,114,118,121,119,122,122,125,121,117,91,112,121,120,122,118,119,118,127,133,128,124,123,122,122,124,135,108,116,119,120,119,120,124,156,133,120,117,119,106,119,115,113,115,124,117,120,114,121,122,101,125,117,124,127,136,119,111,95,128,118,121,125,103,130,135,131,104,124,123,122,116,128,112,73,116,123,121,116,131,118,128,121
132,121,114,119,117,121,123,119,108,117,116,124,130,123,123,86,138,124,127,126,120,122,131,162,117,123,123,124,122,121,113,80,111,122,121,122,112,116,121,119,107,121,123,125,111,124,122,102,128,120,120,120,116,116,116,118,125,124,120,121,116,123,125,116,136,121,121,123,117,119,148,136,100,122,122,120,113,112,105,99,138,121,119,121,113,124,123,133,116,123,125,119,114,117,128,143,132,119,116,121,118,121,116,95,117,119,122,120,122,118,113,135,129,122,127,126,118,120,129,146,116,124,112,115,144,122,110,99
110,122,127,125,124,121,118,93,147,118,118,122,117,123,138,179,109,118,120,121,126,119,123,144,105,119,125,124,124,115,120,111,140,120,116,121,121,118,119,136,103,123,119,116,118,119,110,96,130,125,125,124,122,123,124,134,118,114,119,121,119,123,135,164,124,122,120,120,122,122,100,127,106,118,121,121,119,124,112,69,144,124,122,122,123,123,131,230,116,127,121,121,118,121,123,90,123,117,120,126,131,120,116,117,113,121,123,120,105,119,116,91,138,123,121,123,122,120,128,143,123,125,122,123,120,120,124,145
123,118,117,117,123,119,116,109,122,122,125,123,121,121,120,115,108,122,122,120,116,116,113,138,130,122,121,125,117,120,125,120,112,122,116,115,107,116,108,73,129,120,122,126,119,123,129,179,113,122,119,120,116,122,123,104,122,121,132,122,116,120,122,96,98,113,92,103,118,119,107,82,151,129,132,131,123,123,142,153,110,121,115,115,118,115,105,84,117,120,126,126,149,122,126,107,132,125,126,125,122,126,140,163,108,115,120,124,121,117,106,88,128,122,121,120,133,121,124,131,132,122,122,122,122,121,131,140
113,120,122,122,121,118,103,79,128,122,122,122,120,120,112,93,115,127,123,125,125,133,144,177,127,112,122,120,116,119,114,62,131,124,122,123,124,126,139,142,122,116,120,119,122,122,123,120,112,125,120,121,120,118,116,86,127,129,123,124,110,127,137,155,123,122,120,121,119,119,118,105,120,118,124,123,117,117,120,124,123,126,122,115,123,128,129,138,117,120,118,119,119,119,117,105,122,119,122,118,111,117,114,116,114,117,113,125,136,125,119,93,138,128,126,127,128,124,132,156,118,122,124,116,121,127,129,141
123,125,121,123,118,113,108,105,123,118,113,121,124,121,120,138,113,118,121,122,121,119,120,115,104,118,119,120,126,120,116,104,124,126,123,124,124,125,131,173,139,119,121,121,121,119,115,102,101,123,119,122,118,116,109,80,127,119,123,125,129,130,137,146,128,115,119,119,116,118,111,84,115,121,120,121,120,121,126,166,122,128,122,122,120,121,126,114,121,121,120,121,120,120,117,136,136,122,121,122,121,121,121,119,123,119,120,122,124,122,124,132,117,123,123,123,119,118,113,130,115,128,123,123,118,123,117,111
119,119,112,118,114,120,113,97,116,119,123,122,111,121,122,92,128,122,123,122,120,121,132,171,121,121,125,120,120,126,112,98,117,120,111,112,126,125,109,101,105,120,114,116,117,117,110,101,130,123,128,126,126,125,122,137,111,121,120,121,122,119,111,85,123,116,120,121,121,121,120,120,122,124,119,121,121,120,122,126,114,120,121,123,123,124,127,105,131,122,121,122,116,123,124,115,120,122,121,121,132,123,119,110,124,121,121,121,119,119,120,145,115,118,120,122,119,119,111,96,118,125,120,121,120,123,120,118
137,122,122,124,124,127,139,158,123,119,120,120,120,121,110,94,126,123,122,123,120,123,126,123,118,124,119,120,121,121,121,123,114,118,119,120,124,120,113,123,117,123,123,124,114,124,121,114,121,124,119,123,140,113,106,85,129,126,127,126,126,128,142,159,122,119,118,121,124,127,118,129,113,122,128,127,110,120,117,86,131,123,114,123,131,129,134,174,119,123,124,122,119,119,108,106,130,119,123,123,124,125,137,127,124,123,121,123,122,120,117,99,114,125,121,122,121,119,116,102,126,120,121,122,121,122,126,134
112,117,119,120,121,123,128,115,114,121,121,123,126,117,117,147,123,125,123,124,123,128,136,153,116,120,120,120,120,120,117,108,131,111,118,120,120,120,116,108,107,120,121,123,129,123,128,124,126,125,121,121,121,118,126,101,121,126,121,121,115,119,115,152,128,122,123,122,125,123,128,121,123,118,122,122,124,126,121,90,127,125,118,123,113,123,134,157,110,125,122,122,119,119,115,102,123,117,123,121,118,118,117,108,127,123,121,122,126,122,135,134,115,122,121,119,119,119,107,109,122,118,121,122,120,118,122,127
109,114,119,120,123,112,112,80,140,124,120,122,119,123,128,138,117,129,122,121,120,124,118,109,114,119,121,122,122,120,122,135,127,120,120,121,120,121,120,120,114,120,120,121,120,120,121,119,119,119,122,123,129,123,115,98,118,125,121,122,122,123,129,146,130,120,122,124,138,119,111,113,124,120,120,121,121,121,122,123,109,125,120,121,118,114,114,109,131,123,122,123,122,125,131,140,111,126,123,123,121,120,124,109,125,115,120,121,120,119,111,110,114,123,121,122,122,123,127,104,125,123,122,123,125,129,121,123
115,122,123,122,115,124,103,94,128,122,117,118,126,123,134,175,114,123,121,122,120,121,120,93,116,121,120,121,130,118,124,155,122,121,121,122,121,122,127,115,117,121,122,123,121,121,115,110,113,118,119,121,120,119,127,143,135,122,121,122,119,121,123,138,114,122,123,123,123,121,124,129,122,119,121,123,114,121,120,113,119,125,121,121,121,119,117,98,119,122,121,122,117,126,120,136,118,120,120,121,120,119,116,120,125,124,123,124,123,123,128,126,124,122,121,121,120,120,119,137,108,118,121,122,112,121,121,105
125,122,122,123,121,121,124,99,123,124,121,123,135,127,127,151,116,125,120,121,121,122,124,133,119,125,120,121,119,118,122,106,115,121,120,122,125,123,121,146,117,117,122,122,121,123,120,141,117,127,120,122,126,121,123,104,134,121,120,121,121,122,131,129,118,119,120,121,114,121,120,118,117,119,121,122,111,120,121,117,124,125,120,122,120,120,122,135,112,127,121,122,119,116,119,85,124,119,121,122,123,127,113,122,116,121,122,124,128,123,126,108,130,119,121,122,121,117,113,92,122,125,121,122,127,128,138,150
116,122,121,123,121,131,124,124,119,117,121,122,120,118,110,96,126,125,123,122,122,122,124,127,114,122,120,122,121,120,123,117,117,120,120,119,117,119,118,115,121,120,121,120,121,122,112,88,118,126,123,123,119,126,140,172,131,122,121,122,124,119,113,123,108,118,119,121,121,119,119,111,113,122,121,122,121,118,116,107,128,123,120,122,122,124,132,150,112,122,120,121,122,121,120,103,132,122,121,122,118,117,117,163,105,118,121,123,122,121,121,105,123,125,121,121,123,120,120,132,112,121,120,121,115,115,115,99
123,118,121,122,122,122,127,131,118,116,120,121,115,119,114,102,123,123,121,123,122,124,123,132,126,121,122,122,119,122,126,123,117,126,121,121,120,120,119,124,119,117,119,120,123,121,124,110,113,120,120,121,125,120,117,103,134,124,121,123,115,128,127,113,115,116,122,123,127,122,123,119,117,121,118,120,122,116,115,114,123,123,121,122,125,119,116,123,117,124,120,119,113,112,114,99,126,123,120,121,118,119,117,122,116,122,121,122,123,119,128,131,125,124,121,122,121,122,118,132,115,120,120,120,120,120,124,152
126,121,121,122,118,119,121,110,119,120,121,121,106,121,112,104,126,127,122,122,117,120,128,179,116,119,120,121,119,119,120,97,121,118,120,121,121,121,119,111,124,122,122,124,127,126,129,117,135,125,123,124,123,126,132,128,112,125,121,121,119,119,113,107,130,116,120,120,120,118,122,134,120,122,119,121,118,119,117,102,123,124,122,123,127,125,138,159,131,119,121,122,123,125,111,109,119,120,121,122,119,123,122,119,111,119,120,121,123,115,118,120,127,122,120,122,120,119,120,126,115,126,121,122,123,133,121,118
133,115,121,122,117,117,120,145,119,115,121,123,124,122,124,127,115,121,121,121,123,116,106,91,109,122,120,122,121,118,111,107,124,122,121,123,130,122,126,125,128,123,121,120,122,123,125,126,121,121,120,121,125,123,128,133,120,121,122,123,114,118,118,85,117,121,121,121,121,124,121,119,124,124,122,122,121,123,130,132,120,125,122,123,124,122,124,120,117,121,120,120,119,120,117,138,124,121,121,123,114,124,123,127,114,119,121,121,120,116,109,91,130,121,123,123,128,133,125,154,121,121,121,122,126,121,123,126
111,122,121,122,121,120,109,91,116,114,120,122,123,121,129,142,129,125,121,122,120,128,122,109,101,121,120,121,115,116,117,118,135,124,123,122,111,120,124,149,114,122,119,122,117,118,121,113,114,119,118,119,117,107,105,105,121,121,121,121,119,120,123,142,117,119,120,121,122,116,117,121,116,118,124,123,124,128,119,105,121,120,114,118,117,115,114,114,117,120,117,120,112,116,119,130,127,122,123,121,115,120,118,117,116,117,121,120,120,120,120,126,121,124,122,122,122,124,122,126,121,122,121,122,120,116,117,116
114,117,119,120,120,120,117,112,127,124,122,123,122,123,127,115,117,116,121,123,121,122,125,131,116,125,120,121,122,122,116,82,125,119,121,121,119,113,120,117,109,122,120,122,122,126,124,134,131,125,121,121,118,120,123,100,129,124,123,125,155,123,129,133,122,119,121,122,123,126,124,133,119,118,121,121,119,119,121,110,121,125,121,121,117,118,118,128,107,119,120,122,121,121,120,120,123,125,122,122,121,119,121,112,120,119,121,121,119,121,118,109,122,123,120,121,123,121,125,112,119,124,120,121,117,117,115,123
105,114,120,121,126,120,116,121,116,120,122,122,122,118,115,82,109,125,121,122,122,120,123,106,122,122,121,122,125,120,120,134,115,117,120,121,119,121,128,118,127,119,120,121,121,119,120,123,120,123,122,121,115,121,120,115,120,129,121,122,120,124,116,114,115,117,120,120,128,117,120,116,117,121,120,122,120,126,122,116,109,125,121,123,122,119,117,115,129,125,121,121,121,118,118,125,113,116,119,120,120,119,126,106,120,121,119,120,115,118,112,137,125,126,122,124,134,123,131,141,114,122,121,120,118,119,118,126
120,117,120,121,113,118,122,110,114,117,120,121,127,122,124,138,106,124,120,122,128,120,116,104,129,122,121,121,121,119,118,178,116,116,119,120,122,125,120,99,122,120,121,122,121,120,117,118,126,126,120,122,121,121,121,128,116,121,120,121,120,119,128,129,118,122,119,120,116,119,109,129,119,118,119,121,121,119,123,111,121,123,122,123,125,121,128,135,120,121,121,122,126,119,119,112,115,120,122,122,123,123,123,110,109,118,120,121,137,117,117,110,118,126,121,121,122,118,118,123,115,120,121,122,118,123,130,134
110,117,120,120,125,118,114,82,126,123,122,123,124,124,130,149,123,126,120,119,119,121,126,117,118,122,121,123,116,120,114,120,126,121,122,123,133,122,124,119,118,120,120,121,120,120,119,122,117,125,121,122,119,116,122,109,127,124,121,122,121,122,112,134,119,123,121,122,121,122,128,120,133,120,122,122,119,119,116,115,110,118,119,120,125,118,121,125,126,129,123,123,126,123,131,170,115,121,122,122,118,118,108,89,118,115,120,121,122,118,118,124,121,123,120,121,112,123,125,129,121,124,121,121,118,125,116,115
123,121,121,121,114,117,120,130,124,120,121,122,120,120,113,97,120,129,124,124,114,125,133,112,125,123,121,122,123,120,127,131,115,118,120,120,127,116,119,119,121,120,121,121,121,120,120,114,115,122,120,120,120,119,113,103,124,121,122,123,122,118,118,120,132,118,120,122,121,122,118,140,108,120,120,121,116,118,113,101,127,123,121,122,123,124,126,132,117,123,119,121,114,123,126,125,127,116,121,122,123,121,131,111,111,123,120,120,117,116,108,107,119,125,121,123,122,122,124,136,113,117,119,121,119,117,121,145
124,119,122,123,125,122,121,112,123,123,120,121,122,121,120,130,122,125,122,123,123,121,121,126,116,128,119,120,120,119,117,114,123,120,120,122,122,122,126,124,121,116,121,122,121,121,125,132,121,124,120,122,122,118,113,100,136,123,121,122,121,121,122,132,128,125,125,125,127,128,141,155,115,121,120,121,122,115,111,114,114,119,120,122,121,119,118,126,119,119,120,121,120,116,120,105,118,124,122,124,118,118,119,99,125,118,121,122,119,115,127,144,114,124,120,123,121,125,111,105,118,121,120,120,123,118,118,116
128,119,123,123,118,120,122,136,110,120,121,123,132,122,115,72,120,125,121,121,118,118,125,151,113,117,120,120,125,119,104,85,130,120,122,123,124,124,127,133,119,123,120,122,121,122,122,125,109,119,119,120,114,118,116,137,122,125,123,123,120,122,125,117,116,120,120,120,115,115,107,103,124,122,121,121,121,119,116,125,118,121,120,122,122,121,126,133,120,121,119,119,120,121,115,106,116,121,121,121,121,118,115,127,130,123,123,124,125,125,131,120,110,120,119,120,124,117,112,106,117,122,122,122,121,118,127,132
124,115,121,122,138,112,120,113,121,125,122,124,134,121,106,115,121,124,122,122,124,122,123,111,117,123,120,122,127,119,119,111,127,121,122,122,122,122,115,141,125,118,120,121,122,121,121,117,104,121,120,120,122,118,112,89,123,119,122,122,119,120,120,132,126,123,121,122,121,122,120,123,112,120,121,122,117,119,125,127,121,121,120,121,126,124,120,126,119,123,120,122,119,119,115,101,132,123,121,121,121,120,127,143,113,118,120,122,123,123,128,128,115,125,121,121,122,120,122,110,115,126,121,121,113,118,110,105
129,118,121,122,122,124,130,149,117,114,121,121,118,119,117,105,126,119,120,121,123,121,113,157,106,123,122,123,116,122,142,105,135,123,122,122,120,120,111,102,114,122,122,122,123,119,127,156,118,123,120,122,139,121,121,109,121,125,120,121,119,121,114,129,123,123,122,122,123,122,131,122,123,120,120,122,120,114,106,117,117,118,121,122,123,119,127,143,125,123,121,124,139,120,128,110,110,121,122,121,115,129,121,124,115,120,121,121,122,116,109,89,123,124,121,123,121,121,121,150,118,117,120,122,119,120,119,103
120,124,121,122,117,124,133,118,125,118,120,121,122,124,109,98,106,124,121,121,122,128,116,111,126,117,121,122,119,123,136,145,118,124,121,122,121,119,118,124,118,123,122,123,124,130,118,106,120,122,120,121,120,119,114,114,118,129,121,122,121,120,119,112,118,119,121,122,121,119,125,142,126,118,119,121,123,117,113,123,122,121,121,121,140,119,121,125,111,122,121,122,120,120,120,105,121,118,121,123,117,123,125,92,129,123,123,124,124,123,124,157,121,125,121,122,121,119,116,90,113,121,121,122,122,118,108,114
133,126,120,122,120,118,119,159,127,120,122,122,123,120,128,106,106,119,120,121,118,119,116,105,134,125,121,121,120,123,128,146,112,120,122,122,121,121,112,94,126,117,119,120,120,117,120,124,115,125,122,122,119,120,120,111,121,124,121,123,123,121,125,144,128,121,121,123,122,123,121,139,111,123,121,122,126,129,123,120,133,124,121,122,121,121,125,131,113,125,120,121,126,120,115,94,123,119,120,122,122,124,125,137,119,121,120,121,110,116,114,101,112,123,121,123,106,123,123,133,139,124,122,122,122,120,120,137
107,117,120,121,121,126,123,144,117,119,121,121,122,118,123,128,115,119,120,120,117,116,114,111,134,121,121,122,120,120,120,126,110,119,120,122,121,119,121,63,143,124,123,123,123,122,134,188,115,120,120,122,120,119,114,80,124,119,121,122,123,119,121,124,118,123,121,121,122,119,119,111,116,120,121,122,118,121,127,108,124,122,123,123,126,120,119,146,114,123,121,122,121,120,133,85,118,124,122,122,121,122,118,121,118,108,118,121,121,121,123,111,122,128,122,122,121,118,116,95,128,125,121,121,119,120,124,139
117,121,121,122,119,119,116,105,112,119,120,121,118,118,119,116,120,125,121,121,118,118,115,104,124,119,121,123,121,125,132,144,123,117,120,120,110,119,118,103,126,120,121,123,127,124,124,132,109,121,120,121,121,123,115,83,126,125,121,122,120,119,125,124,116,121,119,119,124,123,121,117,136,125,122,123,124,124,129,168,113,125,121,121,120,120,113,119,121,114,121,122,121,122,127,146,146,116,121,122,121,119,116,97,113,124,121,121,117,118,117,117,111,123,121,122,111,123,121,118,118,127,121,122,123,121,118,104
126,121,119,120,121,122,119,122,114,120,121,120,115,119,115,124,117,123,119,121,121,119,120,90,125,122,121,122,122,120,112,130,119,117,120,122,120,129,141,122,115,122,120,122,120,116,114,113,125,125,121,122,122,120,117,116,120,125,121,122,125,121,115,122,115,120,121,122,118,121,125,115,139,120,122,123,124,124,130,139,107,118,119,121,124,120,125,149,126,124,120,121,120,119,115,135,118,123,123,123,122,127,122,116,126,120,121,122,121,119,125,100,109,124,121,121,120,122,119,140,140,127,123,124,124,125,134,148
121,114,119,119,114,118,120,110,111,123,122,123,120,122,127,121,119,121,121,121,120,123,125,120,121,121,120,121,119,118,121,127,125,116,121,122,124,119,117,123,128,123,123,122,116,121,121,139,112,125,120,121,122,123,118,112,135,121,121,121,120,118,113,107,120,119,120,121,121,121,123,126,129,121,121,121,116,121,132,134,115,121,121,122,112,122,115,117,117,124,121,121,121,123,118,110,119,120,120,121,110,114,118,109,114,118,120,122,112,122,121,130,120,123,122,122,123,120,131,147,117,122,121,122,118,117,116,105
130,120,121,121,122,127,114,123,100,118,120,121,121,122,128,113,133,124,120,121,121,120,124,133,112,122,122,123,123,123,124,114,119,121,120,121,121,122,122,123,116,119,120,122,123,119,117,125,113,125,123,123,126,120,111,117,122,118,119,121,121,121,126,121,110,116,119,120,120,118,117,108,130,125,123,123,122,123,129,125,110,120,120,121,120,119,113,108,126,120,122,122,113,121,120,129,132,121,122,123,121,121,124,118,119,116,120,122,118,119,113,127,126,126,122,123,123,125,129,127,112,120,120,120,122,118,115,127
116,119,121,122,119,119,113,93,127,122,121,121,120,119,125,156,126,126,120,121,114,120,123,110,105,125,121,123,118,122,116,76,134,113,122,122,120,124,137,172,111,125,120,122,109,119,110,82,126,121,122,122,121,122,120,129,115,122,121,122,123,125,127,114,129,121,120,121,120,120,118,132,114,115,119,120,120,121,116,89,113,120,122,123,122,124,129,128,129,125,120,121,122,120,119,145,107,121,120,120,119,118,116,102,131,119,121,122,119,122,130,132,114,123,122,123,125,122,125,123,110,125,123,126,147,123,120,112
126,120,122,121,121,120,125,132,123,122,122,121,122,119,114,115,118,123,121,123,125,125,123,126,120,123,120,121,119,119,115,106,113,116,121,122,121,119,121,124,120,120,121,121,120,118,115,98,129,122,120,121,120,122,127,185,94,126,124,124,123,125,123,79,124,119,121,121,118,119,117,112,121,121,119,121,119,118,114,120,120,123,120,121,118,120,119,120,121,118,121,120,120,120,120,106,121,120,121,122,119,120,124,125,127,116,120,122,131,119,123,108,122,123,120,121,119,119,124,126,113,124,122,123,122,124,131,119
117,116,121,122,121,120,117,106,118,116,118,120,120,118,114,113,127,123,121,122,126,120,122,124,120,126,121,121,113,120,120,113,125,116,122,122,120,118,113,115,114,119,120,121,122,121,124,127,132,120,121,122,119,122,116,115,111,119,119,120,121,121,116,131,123,122,122,123,121,123,122,109,113,118,119,122,132,116,121,93,110,124,122,123,123,125,125,136,121,122,120,121,120,119,119,108,109,119,118,120,115,118,115,110,124,125,121,122,125,116,123,122,120,122,121,122,125,122,128,129,115,117,120,121,122,121,122,132
129,120,121,122,142,118,116,116,124,124,122,123,114,113,125,139,116,123,121,122,117,121,122,112,122,126,121,123,132,119,118,116,122,119,120,122,122,121,131,140,116,117,119,121,123,123,113,91,127,126,121,122,115,122,131,149,117,123,121,122,120,119,121,128,123,123,122,123,121,119,119,119,119,117,119,120,121,120,119,120,112,121,120,121,119,117,112,112,119,126,122,123,125,123,111,116,124,120,120,121,119,117,123,107,116,123,122,123,122,123,129,105,116,120,122,123,122,123,132,130,129,123,121,122,121,121,121,120
121,118,120,120,119,119,124,126,115,122,121,122,123,120,115,116,133,121,120,121,118,121,126,127,127,122,121,122,124,121,119,111,112,121,121,122,122,124,118,115,120,123,121,123,127,123,131,129,119,119,121,122,121,122,126,126,113,122,120,121,121,119,112,110,129,123,121,122,141,121,134,123,114,122,118,119,122,121,121,120,120,121,122,123,117,117,125,130,117,119,120,120,120,118,109,96,133,121,121,121,123,126,132,133,115,117,121,123,121,122,124,120,113,126,121,121,121,119,121,116,131,119,121,123,123,122,119,130
134,119,120,121,125,120,128,140,122,123,121,122,121,119,114,91,116,121,122,123,121,119,116,101,123,121,120,121,122,118,122,130,117,124,121,121,121,121,119,125,123,116,120,120,119,117,122,119,121,120,121,122,123,120,118,135,123,119,121,121,121,121,116,120,121,125,121,121,116,121,123,123,124,120,121,122,115,128,123,129,122,123,120,120,120,119,120,123,114,124,122,122,122,119,119,120,131,119,120,121,120,119,119,101,102,117,120,122,122,118,110,116,137,128,123,123,120,122,128,145,115,117,120,121,115,118,122,109
119,115,121,121,117,118,117,151,129,127,122,123,122,121,123,130,111,119,120,121,120,121,116,111,118,116,121,123,123,123,127,106,136,122,121,121,127,119,112,122,121,121,121,122,127,119,119,119,116,123,120,121,120,118,127,119,118,121,120,121,120,122,119,115,119,119,121,122,120,121,118,101,122,119,120,121,122,119,115,95,128,123,122,122,124,125,129,163,121,118,121,122,120,120,121,100,110,119,120,121,124,122,112,96,124,115,121,122,125,116,115,119,115,126,121,122,119,119,125,116,134,121,121,122,121,120,127,146
97,118,120,122,121,121,114,108,127,123,120,122,117,120,120,87,124,121,120,122,121,123,131,165,120,124,121,123,137,123,124,104,124,121,123,124,121,126,127,143,116,120,121,121,120,117,113,99,118,121,121,122,122,126,125,126,124,123,120,121,121,121,131,124,114,119,120,121,124,119,119,112,129,118,121,122,125,125,122,156,114,125,122,123,119,134,121,117,125,122,122,123,125,119,129,127,125,119,121,120,120,122,124,112,117,120,120,122,131,121,116,113,114,123,121,122,122,115,114,132,122,127,122,123,119,112,112,111
123,113,120,122,122,123,114,111,115,123,121,122,121,127,118,124,123,122,121,122,122,119,114,103,122,121,120,121,120,119,124,140,142,123,124,123,123,122,130,153,123,119,121,121,116,118,113,97,119,122,119,120,120,119,120,88,128,124,122,123,122,125,133,175,117,122,120,121,118,121,122,108,115,121,121,122,120,119,118,114,125,123,121,122,118,123,120,116,115,123,120,122,122,125,122,120,117,121,121,122,116,122,116,107,128,123,121,121,112,120,122,127,117,123,119,120,119,119,112,103,123,121,122,123,123,121,127,166
123,120,121,122,121,120,112,109,125,118,119,120,116,119,121,100,122,124,119,121,120,121,117,126,120,123,122,122,122,129,121,107,121,115,122,123,122,121,119,124,121,119,122,124,122,122,126,120,114,122,120,121,120,119,114,107,129,125,121,121,120,121,129,129,118,117,120,121,122,122,120,117,126,120,122,122,116,124,122,140,121,119,121,122,126,119,131,110,122,128,122,122,121,123,107,100,122,119,120,120,118,118,120,116,102,124,123,122,123,123,118,116,128,121,120,121,120,123,122,110,118,124,120,121,123,119,116,112
125,116,119,120,119,121,122,99,127,119,122,123,123,120,129,196,113,126,120,122,120,120,121,97,120,124,121,122,123,120,119,121,119,118,121,122,121,120,120,121,120,119,121,122,122,121,125,126,128,122,121,122,122,121,133,130,112,122,121,122,120,119,117,112,132,118,121,122,119,125,121,110,125,121,120,122,122,119,121,121,113,127,120,122,121,120,110,64,120,122,121,122,122,122,130,143,129,119,121,122,123,120,122,103,120,123,123,123,124,121,124,138,119,124,120,120,122,121,119,120,121,119,120,121,123,118,119,118
121,122,120,121,118,120,122,128,125,121,119,120,123,118,122,117,106,122,121,122,124,123,123,147,114,120,123,123,123,120,117,100,117,118,119,121,117,118,120,104,120,121,121,121,119,118,119,126,125,124,122,123,122,118,120,130,113,123,121,121,121,120,113,101,124,119,121,121,122,121,120,128,124,121,119,121,120,120,122,114,131,121,123,123,123,126,123,132,119,128,122,122,120,119,119,115,114,118,120,121,120,122,108,119,125,122,120,122,120,118,125,104,118,123,120,121,121,119,125,143,129,128,123,124,117,125,127,118
122,119,120,123,119,117,115,114,123,116,121,121,120,124,125,106,115,124,121,122,119,121,127,120,129,129,122,122,124,126,115,119,119,119,121,122,121,120,135,116,110,118,120,121,122,121,120,137,123,119,120,123,128,119,118,118,120,121,121,121,122,124,119,106,106,120,120,121,120,119,119,115,131,124,120,122,121,120,123,140,111,120,121,123,121,120,118,100,124,122,120,121,119,123,119,121,118,119,121,119,115,119,117,103,115,119,120,121,121,121,119,119,116,126,121,121,117,122,128,115,124,126,120,122,138,118,127,117
130,119,122,124,123,129,144,151,120,118,121,121,123,118,120,101,109,129,123,123,121,122,122,116,122,115,118,119,119,119,122,97,130,124,122,122,121,121,115,129,114,122,121,122,121,122,122,115,117,124,122,123,125,119,119,106,124,120,120,121,121,120,120,129,114,117,121,121,121,118,122,123,122,118,121,122,122,122,117,109,111,124,122,123,122,123,127,122,131,118,120,121,120,119,122,117,121,125,121,122,121,121,116,112,111,123,121,123,121,121,121,129,136,113,119,122,120,120,121,132,124,126,123,126,120,122,125,121
122,118,121,122,132,117,118,107,110,120,121,122,122,121,117,112,130,125,121,121,120,120,124,129,116,123,121,121,114,121,121,120,123,123,121,123,123,126,126,129,121,121,121,121,123,125,117,123,126,121,123,124,123,121,124,142,121,119,121,122,117,116,114,111,116,116,120,121,119,119,121,99,129,121,122,123,121,120,120,157,129,127,123,124,122,120,126,136,121,121,121,121,120,120,118,113,120,118,120,121,121,121,121,120,123,123,120,121,121,120,116,127,113,122,121,121,121,122,124,139,111,124,120,122,122,123,118,99
127,119,121,122,122,122,120,109,125,118,119,120,119,120,122,130,120,125,123,123,124,125,121,157,112,121,121,122,121,122,131,163,119,117,120,121,121,119,116,86,126,124,121,121,122,123,124,120,122,123,122,122,121,120,122,131,118,121,122,122,119,120,119,118,124,121,122,122,120,129,123,113,120,123,122,123,122,118,122,122,122,120,120,120,116,120,124,124,118,120,120,122,129,127,125,120,118,121,120,120,120,119,115,136,119,122,122,121,121,121,124,106,120,117,121,122,123,120,115,121,115,124,121,121,117,120,121,116
123,121,121,121,117,120,121,133,120,121,120,122,122,119,114,99,114,124,121,123,124,122,125,123,115,120,121,122,122,120,120,113,124,119,120,120,119,119,129,148,114,119,122,122,123,123,128,126,123,124,122,122,121,119,112,99,128,121,121,121,118,120,122,122,127,117,120,124,135,122,120,88,121,126,121,122,121,119,121,115,119,123,121,122,120,122,121,127,118,122,120,121,121,121,118,116,133,115,122,122,122,123,129,134,119,117,120,121,121,121,122,119,123,120,121,122,123,116,125,117,115,122,122,123,131,123,116,122
