0.9524036173250832
0.1749444153615305
-0.8568460634576596
-0.5416276200276677
-0.36447980518388545
0.26780292411643924
0.642852717506756
0.8738117034962594
1.016827441865796
1.4978037747369006
1.4439475572308242
1.3788640950820203
1.309952290587982
1.2428822441038563
1.1816581963068913
1.1287041913760703
1.0850775299247273
1.0507798703844655
1.0250939004775104
0.6380622941081455
0.3430521262839348
-0.23920092370343543
-0.2984407831325512
0.4253267721460472
1.0073258532083227
0.7162027394679307
-0.2618720906695825
0.4573227494805355
0.2965535607268307
0.5401823354380142
0.7305231837946791
0.8720992680551162
0.971640559446239
0.6680491594926041
0.05462129040019792
-0.047752855545535745
-0.10858883259113848
0.23031889111301312
0.505431161511949
0.7184093866675714
0.8752393073038894
0.9841610768310791
1.0541833686467887
0.7253979584905196
0.46019454410130733
0.25620311893926373
0.10706385186006921
0.0044034023408282535
0.30792886856998397
0.18585105440954494
0.09401481410238369
0.3972536545597593
0.2678975663272407
0.16494742549834024
0.45553393955335986
0.6822458783347939
2.325364622909815
0.625711533604199
1.8454194311694119
1.3118853379463227
-0.972609674986068
5.007572050872618
3.7573682846273484
5.250358881950378
1.5390007386609055
-2.5091026162583856
-2.999657635947387
-2.123864829918329
-2.0601299328239144
-4.516464348798483
-3.394476838372719
-3.5225005921770287
-3.193122038149207
-5.839871338737028
-7.103971956905636
-5.023719833244002
-6.629443817435877
-10.781002834976103
-7.997090333267543
-5.314926333839752
-9.467007522403433
-5.313083348232972
-3.873567371333489
-0.2351124078797806
-2.6837567681683563
-5.468850803599558
-4.717107399392205
1.0555197638318878
0.6970778729038747
-1.9556261430957678
-3.00451294328757
-5.299986644435606
-1.144155539317329
2.8639461291987147
-2.2292409771157624
-2.982256606982043
-2.8011381792808407
-0.04233697475754283
-0.11214552439257153
0.5106112573430286
-1.6381533632400553
-0.7604655335608841
-7.440216715566429
-8.888857833043073
-7.600117929190142
-5.683642649616921
-2.9955466538127884
-1.638964952699609
-3.9704885499099376
-1.7864832889692606
-2.687638859140163
-2.702907386665985
-1.6300933195656062
-4.878840790380041
-2.9919423963904546
2.940698687144862
1.2176537604849251
1.9274196103558385
1.275212549871115
1.0513739917550369
1.5638970327958535
1.1847379495697616
0.8512359689580352
0.20437013843454122
0.43767391476562156
0.26095525978769246
0.12865608388075261
0.034911398551156894
0.3416414881771247
0.2189081522246457
0.49271780076490435
0.7058838212539141
0.8638275279260036
0.974359173664793
0.6774903266604109
0.8049290771151804
0.9008823170015595
0.9693343334816475
1.0149855783134654
0.673928863398836
0.7737541839352569
0.48606540709799756
-0.10286320061780846
-0.17725784748699638
-0.2101401411076088
0.15448384280104255
-0.2855159147751575
-0.2513770190790575
-0.20985144167736014
-0.16696197606244462
0.24206702637711403
0.5605143995102364
0.7964740317154844
0.9616097899670389
0.7002262733774902
0.8482609090876212
0.2164010944797874
0.4582224517613129
0.285248373233015
0.5220692731292269
0.34086537199344613
0.5680716093703086
0.7458290015317905
0.509558612465589
0.6885970570080802
0.08899650365942235
0.3613065387898059
0.5839671477419133
0.7575918383416995
0.8864640877541775
0.9768439303490699
1.0357418355503818
1.0700850141046918
1.0861977111366048
1.0895210168144545
1.0845061502816682
1.074625738791422
1.062458692644501
1.4185010872121073
-0.5226390573546218
9.036186627273668
6.832824906824353
9.69183036981503
7.335375705814398
3.132216958914406
1.3073030169699869
-4.821039274051558
-5.363713252395728
-5.14981505408516
1.1344717818862593
-3.461781492360784
-4.82974777707788
-6.8924052010690495
-3.569126836283611
-1.6070613339095297
4.71113924267458
2.143684147612497
5.1168193604650725
0.6659862843792208
1.143650135477131
2.619306234942025
2.2653216319835483
0.4665646939030297
-1.6818245740594624
-4.039151219034663
-6.1313051273779395
-4.282411598905486
2.466143625568166
3.6669306127227044
0.3959188372708642
-3.7315054981936235
-5.43997998207601
-4.4303974002058055
-0.5709806724573925
2.467076204183547
-2.2598317178164278
-3.068410718023687
-2.91552481123277
-2.0088900095891375
4.990764743896083
8.151821847316254
7.424252941744295
1.8204768277985002
1.7677726300508299
2.1216377204414405
2.7835143892226055
3.2980223764211916
2.941241554812693
-2.8890799870104056
2.581322180464041
-0.43158977491099293
3.860231356394879
2.4235424990499963
0.8758364029917989
-1.8044971384323207
-3.8299831919395237
-3.069001809419995
-2.3447355157125065
-2.0698810108557906
-2.548726505358383
-1.4121391257179878
-0.502938806255749
0.19046820362849431
0.32386082069678246
0.7510272544229845
0.6717991844978303
0.9370897327740572
1.1095698445035858
1.209753004311606
1.2563340288590568
0.8966878946062563
0.5983917960083058
0.36252800786431505
0.1848192101178505
0.05794435253781084
0.7106151098033776
0.48773093186426253
-0.06041797870909765
0.25624594935696743
-0.5908034717143091
-0.8688391621326601
-0.31741574554515395
0.13538101841625216
0.1212500543768468
-0.2659912594357757
0.16858971757917407
0.5090065607158917
0.3942421000820538
0.2904651170118475
0.20187030554779922
0.12989953027837836
0.07414219309852257
-0.3356354538236171
0.4589379129377731
0.3456358731931791
0.24664415650082977
0.16455215478459104
0.09965181555308181
0.4194477701968208
0.6674672650181732
0.8504668450857891
0.9778781836705991
0.6913861143729495
0.45558548474903104
0.2705226545415659
0.5008817954448488
0.6859682424474911
0.8277673267111261
0.5622855345406232
0.7186929888856736
1.2084727676827636
0.843195875809348
0.9142815133734747
0.22859705740534775
0.06678285848023936
0.32800737597036866
0.9150016278273045
0.6344153891718849
0.7755561035556766
0.8824934181645913
0.590654637412813
0.7281684892555468
2.680012754686455
1.9639114928227375
1.724470153327314
6.677352637156906
7.515962994396245
6.898334374979574
8.490246803042314
5.190965301358422
2.9054099790342267
2.626947386506568
1.743418545691087
2.9699976101886314
2.879044529291743
0.9878037056591502
-0.07487296580834968
-0.4505752321437592
0.08541192213422133
0.20722575155329154
1.4531774365902437
1.3360633816672176
0.12936680583971194
-0.06425408683799999
-0.18138428648072413
1.6025131907529093
2.9986602989809654
1.826966329226916
1.6000151155826512
0.30300448385258294
-0.6988019137484821
-0.6972704730926058
0.4651570141401489
0.663047436375445
0.4460647353848515
3.96050128313133
1.866161402467457
4.950255592586716
9.510632990003064
6.6376091523302305
4.5856679379481635
2.557207623140037
0.9939739847431344
1.3233966042805685
0.5585217001071684
-0.3374180856270175
-0.9556827699166751
4.549457641926124
5.168415857258814
4.071045985612248
2.7655643170907354
1.3529709407742843
1.7489706295185374
0.2549400728455322
0.23863013156542634
1.763573432186936
1.1400106920115767
1.761826013648503
1.8840796896534704
0.8644117226455381
4.128093227318635
2.2308184784137053
2.171627321270067
0.6458772848576984
0.9471666751121908
0.11496906922112504
0.23837373914933346
-0.7292628604292462
-0.7037392755703611
-0.26302381601837344
0.11555977224656755
0.4248382037581022
0.6657895437598715
0.8444602045428378
0.9696158961681763
1.0510425769600582
1.0983927561726374
0.7517814634697766
0.8419143049107309
0.5426908535187458
0.6793536360823801
0.422421473451811
0.2266530716023019
0.4537393071208303
0.6405052423806563
0.7869768847477209
0.5276859574303328
0.32206461896385363
0.5353496119362731
0.3382319773840574
0.5556008936918142
0.7281387140410583
0.8586650127832781
0.9522978619134809
1.0151997488027213
1.0537028725805093
1.0737434472572134
1.0805360326263855
0.7097389853110325
0.7879435239573254
1.2228504110849878
0.8217891310442884
0.8719844720170882
0.9138449850806112
0.947117569379295
0.603638506114224
0.7075195029933257
0.4276538235220766
-0.1516948484545298
0.1525246691629208
0.4119189880451015
0.6224043033166572
0.41660224138077684
0.2535753417067836
0.4991926207112336
0.32535966450412585
0.18976500157408338
-0.27960188317391665
0.1042135304123547
0.04901011468608277
0.010265330407532422
-0.015010417561891757
-0.029774687301769253
-0.036729817933765174
-0.0382023103154481
0.33258974806235264
0.25101881964328343
-0.1891090783446483
2.41809291267853
2.2159941280994797
0.8857304077674222
3.1348068433524077
1.5436129327200887
-11.909135790280562
5.046054418468122
18.079231495823713
15.354730752569273
14.944640813713203
15.767612884513321
4.717445356148383
40.62679893063163
25.56459037857788
13.808280171763268
15.92394239112836
9.551810042570434
2.8471673486027917
6.391265216265991
9.102936203551955
17.999212420374693
7.189958325521699
9.374176898824611
1.2455754283483857
-1.9890623593739123
-19.675737232836777
-22.609962438131635
-9.717328050139347
-4.667672470622358
6.372886428029829
7.08055258286913
5.070428113961582
8.401234369407883
5.628350815545962
6.589855469300597
11.653690143403008
18.752437906480758
15.120271149254908
4.938631037396911
10.567985759281274
6.181737224424454
8.661537009433706
8.070433516698966
3.1879747462428636
1.2984654251594843
-18.43189205482531
-11.275011910631212
-12.440089684092193
-16.299917914940437
-11.57749032703027
-7.965495662709722
-5.052293439091504
-9.079384591818009
-4.508664883187911
-9.795519677714688
-8.782375113533915
-9.027747608626328
-5.1249007590313775
9.334405709911923
2.2774917509269397
4.849907134629467
4.432626675424524
4.633824159308775
3.893654401204121
2.0904001774804972
1.733036149735473
1.817870055742943
0.7798391780303315
0.7204710590208313
0.705201194002183
0.3502981435398818
0.09840995427634028
0.3002565877689813
0.11459713558375248
0.7256550110997819
0.47530505119834854
0.6481764949761613
0.7852668330504092
0.8888755210979611
0.594428241160016
0.36130919025831365
0.18543002422687938
-0.30902458295904056
0.06129039550315862
0.000974438488027942
-0.7745538540451551
-0.2554647647862045
-0.5653760134234374
-0.42687410362919176
0.06316772944331356
0.44697410210503585
0.733217139834868
0.5664373049364353
0.04745420065520789
0.3739598909081597
0.26114329593692853
-0.19951486257874118
0.18343515486077694
0.49007711733122133
-0.01319213366681149
0.32805259741182524
0.5968748253940094
0.7986163962344894
0.9419796010626568
0.668410494580536
0.8112801310426963
0.5477841874445937
0.7065975434134051
0.8301709587596788
0.5529920707151817
0.3340671137615515
0.9066859775275031
0.9863713701636826
0.6690744285335937
0.7842853300662374
0.5054729265941557
0.6579786433419315
0.7814329865325528
0.5080514144815949
0.6637808151631654
0.42012301239113103
0.9702900983408396
2.1368065607515145
0.07179459209459704
-3.0301463991923043
4.202518259062224
7.28407699696098
10.2621294572504
14.571870735552519
12.85158586953802
5.322171341927257
4.144243478670722
17.688450576942717
14.89806812065034
12.429463169347718
3.7237911995510355
3.6147965220709857
-8.062457609992165
0.4685553656061181
7.485631940205027
-1.389369145788942
-1.3070413957005729
-2.5465053574042433
-1.1529107493572996
-3.998693971093581
-7.587945873186792
-2.0933523318412472
5.654516867712921
7.181986189107406
3.3389170021062897
4.594944190687559
-0.3994501806351103
-1.3658036236750482
4.610087163297141
0.807952708882115
1.1054068431159887
17.217784260071838
17.430544472786305
18.97680907529127
9.472703169700898
0.7399081376116676
-1.1514664681254716
-3.0708549609092746
-6.489079167550149
-3.684948782024107
-0.8559117365032014
-8.848379750217156
-7.565373922060058
-10.36874573914785
-8.292070599059775
-9.061903074362501
-1.0632057044424705
3.3399009819782677
5.094622045053343
-0.07278361664701194
-4.282717648703381
-7.553685342363542
-14.396210614663058
-13.211395236860477
-11.60119077937289
-5.346680846729528
-2.6292320610051254
-4.312170722232846
-3.903674187965942
0.7707971490567487
0.9780765336354007
1.320452570000176
1.4316823640930783
2.125521152409664
2.1848914891991478
1.7595406558708062
1.3512060960456442
0.9860584684545143
0.6771882401901526
0.4283880676540174
0.605965714207847
0.7493810108563634
0.4911477602247356
0.2890972992281424
0.5072560628142876
0.31544748650814713
0.5379784315503817
0.34648901978730384
0.5667550449244196
0.37154930509561346
0.5874779900786169
0.38788748110557303
0.5997498473110285
0.7653034408324078
0.5197812798687619
-0.04520586826755535
0.25961916748009084
0.5108865378806234
0.7083777075076467
0.48754122474332523
0.3093864142422087
0.5410187528724675
0.7237198949797885
0.4923272476774826
0.6758141999112404
0.8174102932074863
0.9213095595706338
0.6244686709987923
0.38745163221639
0.20703445866928488
0.07668464813352396
0.3569863162334734
0.585035417027146
0.3932907679987354
0.6096770136402165
0.7772978287724239
0.5321277160362755
0.3350681203776566
0.5527250624912867
0.7256732173744563
0.856654462593715
1.3194205632501272
0.9282741808920196
0.6075818474142993
0.7255351000637023
0.4531219947978191
0.613827232737201
0.7459661075486212
0.4808852292017803
0.6440134677355831
0.40659727232297316
0.593093172862824
0.7431614765524526
0.8583088239585216
2.0483198977340296
4.798092883966451
3.918435552293855
1.2877793406144895
-1.8991907030860382
0.10778078739204755
4.344325940599526
4.3090218982945565
1.2332349967427056
1.0083030268362265
-1.346477061773056
-2.0173147388469004
-0.9647028602073726
-1.5393584902365993
-0.8326879896352195
-1.7156856819948252
0.5743105601838518
-1.6838883195253804
-1.6090265332279985
-2.988120059481873
-1.4378111181859325
-2.029359121358815
0.46955630797941383
-2.3857983264196783
-5.3718732452717965
-4.3065756637503405
-5.583431623376977
3.0837614133065543
5.764558790046882
6.528541609756968
2.8338546029079987
1.6428833350181893
0.3123295930732486
-5.873002002096668
-3.20880405089364
-3.5348860322275204
5.51891066672703
8.488656594816911
5.032743009686671
8.400945413923145
5.731148772830861
1.2987266906217956
-1.4215269887241775
-4.529247776661078
-5.66090514767982
-0.7925292450756007
0.9263486143688213
5.205207831554434
4.759529361397102
3.8902210420643852
1.268340094800232
-1.5428591651707646
1.858543279784763
-2.4317179614954982
-0.5799504230122099
3.5338009518185385
3.7746070175661135
7.551947480676188
3.3644712068537608
-4.078745579005245
-5.380176455212957
-5.065521728967987
-3.8859315060988986
-2.8324823567216555
-1.5736835756882979
-0.574493967838465
0.1814099470797294
1.0923500208721382
1.0021839599813869
0.8656321101037746
0.7106460373129652
0.5563366443524527
0.7834014291958028
0.20658785766992316
-0.25343220144470185
0.13420467265666902
0.07903084357773524
0.03791943316815507
0.3776386267669248
0.6415578915500675
0.8366538502042573
0.9727993134393781
0.6922247597041822
0.8287795928195988
1.2972791807450674
0.9115116766452375
0.5955469717662809
-0.01993150235772545
0.25100948587835403
0.11288318811270769
0.38539928907395
-0.13109688295081162
-0.15752062568094372
0.20699983308721148
0.5001346250242057
0.35622527906298496
0.2370693663786464
0.5116944874268479
0.7238675294654109
0.879755455154269
0.6190374118903059
0.4052567627007096
0.23809432936803213
0.482330837011286
0.30896593818928914
0.1749693339639459
0.4451594966996561
0.6598192432194155
0.8223660322835405
0.5704117118406984
0.36602728829302666
-0.5294587687830663
-0.10557475287194062
0.2498727592126675
0.5338731963469062
0.7502027890652933
