117,121,121,123,120,120,121,121,125,122,120,122,121,121,120,119,120,123,121,121,120,121,121,120,118,118,120,120,122,121,121,121,119,123,123,124,122,121,121,119,123,123,121,120,119,121,119,119,120,121,120,121,122,121,121,119,117,122,123,122,122,121,121,121,118,118,120,122,120,121,122,119,120,121,120,123,124,122,121,120,122,122,121,123,120,120,121,119,119,119,121,120,122,122,122,119,119,121,121,123,120,120,121,122,123,125,121,121,121,121,120,122,123,123,121,121,121,120,121,119,117,118,121,122,122,121,122,118
118,122,120,122,120,121,122,122,126,119,120,121,120,121,120,122,120,123,122,122,122,121,122,119,118,120,119,119,121,121,122,119,118,118,121,124,122,121,120,120,126,123,120,120,118,120,121,120,118,123,121,122,122,122,122,121,120,121,121,122,122,121,122,120,117,119,121,122,121,122,121,120,126,124,120,122,120,121,120,122,121,123,120,122,122,120,121,119,117,120,122,124,121,120,121,119,122,120,120,120,121,121,122,120,124,122,119,120,122,121,120,120,122,123,119,123,121,121,122,120,118,120,122,121,121,121,122,119
117,121,120,118,121,121,121,121,123,125,122,124,121,121,121,121,121,120,121,122,120,120,121,120,115,120,122,122,121,121,122,119,122,119,119,120,122,121,122,122,120,123,122,122,120,121,120,122,121,122,119,124,122,121,121,122,117,119,122,119,118,121,122,120,119,119,119,122,122,120,121,119,122,125,121,119,121,121,121,119,125,122,121,125,122,121,118,121,121,118,121,123,122,121,121,119,119,116,123,123,121,122,121,123,120,124,121,122,121,120,120,121,120,124,122,123,121,121,121,121,118,121,120,118,119,120,122,120
121,121,121,121,121,121,122,120,119,122,121,124,122,122,120,121,120,121,121,122,122,121,122,120,115,120,121,122,121,122,122,121,120,118,122,121,122,121,122,121,120,124,121,122,121,121,121,119,123,123,122,123,123,121,122,121,119,118,121,118,120,121,121,117,120,119,121,121,121,120,121,119,122,125,120,124,122,121,120,121,121,123,122,122,121,120,121,122,120,119,121,121,119,120,122,119,120,116,121,121,122,122,123,120,122,126,122,122,121,121,121,122,122,124,122,122,120,121,121,120,119,119,120,122,121,120,121,120
117,118,118,121,122,121,122,120,124,123,121,121,119,119,121,121,122,124,122,123,121,120,121,122,118,123,121,123,124,121,122,120,117,116,120,123,122,121,121,118,123,121,122,122,121,121,121,122,122,126,123,120,120,121,121,121,118,123,121,119,121,121,122,119,118,116,119,124,122,121,122,119,124,122,122,123,121,120,120,122,123,123,121,124,121,121,121,119,117,119,120,120,120,121,121,121,121,120,121,120,120,121,121,118,124,122,121,120,121,120,119,121,122,125,121,125,121,122,121,119,118,119,120,120,120,120,122,121
121,124,121,122,121,121,122,121,123,125,121,124,121,121,120,121,119,126,122,122,119,119,120,120,119,117,121,123,122,120,121,122,118,122,121,120,121,121,121,119,121,120,121,124,122,121,122,119,124,124,120,124,120,120,122,120,118,118,120,119,119,121,122,121,121,119,122,124,122,120,122,121,124,124,120,121,121,121,120,119,122,120,121,122,121,121,122,120,118,119,121,123,122,121,121,119,117,119,120,122,122,121,120,119,120,125,121,124,122,122,121,121,126,121,120,122,121,120,121,122,120,120,123,119,121,121,122,119
117,122,119,120,121,121,121,119,124,122,121,124,122,122,120,120,120,127,122,121,121,121,120,121,118,118,119,123,122,122,121,121,118,120,122,123,122,121,120,117,125,122,121,121,120,121,121,120,120,125,121,121,121,121,121,121,121,118,121,122,123,121,121,119,119,117,121,123,121,121,121,119,122,126,122,122,119,119,120,121,125,118,121,122,123,121,120,119,117,122,119,122,121,121,121,120,118,120,121,120,121,121,123,121,124,121,121,120,121,121,121,119,120,126,122,122,122,121,120,122,116,117,121,123,122,122,122,119
119,117,119,121,122,121,122,119,122,123,119,121,121,121,121,122,123,127,120,121,121,122,123,120,119,120,123,121,121,120,122,120,116,117,121,123,122,122,121,120,122,120,121,122,121,120,121,121,120,122,122,119,122,121,120,120,118,118,121,124,122,121,122,120,121,117,121,120,121,121,121,118,123,122,122,122,121,120,120,120,121,123,122,121,121,121,121,122,118,125,122,123,123,121,121,120,119,123,119,121,121,122,121,119,121,121,121,119,119,120,120,121,121,119,119,122,123,121,121,122,117,125,123,122,121,122,122,121
119,122,122,123,122,121,122,119,122,122,119,121,122,121,120,119,123,122,122,124,120,121,121,122,117,121,121,122,121,120,120,120,117,118,120,122,121,120,121,121,124,120,121,121,122,121,121,117,122,125,123,122,120,120,121,120,116,117,119,121,121,121,122,120,120,119,120,125,121,121,121,119,123,125,120,120,120,120,121,122,121,125,122,122,122,121,121,119,120,122,121,121,121,121,122,121,117,116,121,122,121,121,120,120,127,121,121,123,123,121,120,121,121,122,123,119,119,120,120,120,117,122,120,123,121,121,122,121
119,118,119,122,122,122,122,120,122,120,120,125,122,120,120,121,122,124,120,119,120,121,122,120,119,121,119,122,120,121,121,120,119,119,121,122,122,122,122,119,120,121,123,121,120,121,121,120,123,125,121,122,120,121,120,121,117,121,121,122,122,122,122,120,121,120,121,121,120,120,121,120,121,123,121,121,121,120,120,120,121,120,121,124,122,121,120,119,118,123,123,122,121,122,122,122,119,119,120,121,120,121,121,121,120,124,121,120,121,121,122,119,125,121,121,122,121,121,121,121,118,121,120,123,122,121,123,118
118,120,119,119,120,122,121,119,124,121,121,120,120,121,121,122,122,122,121,123,122,121,119,118,117,118,121,122,123,121,121,120,118,117,120,118,119,120,122,120,122,125,122,124,122,121,121,120,123,125,121,124,123,122,121,123,118,118,119,120,121,121,121,119,116,120,122,121,121,121,122,118,120,119,122,121,121,121,120,121,122,124,121,124,122,121,121,118,119,121,121,122,122,121,121,121,121,119,122,122,122,121,120,119,124,121,120,122,121,122,120,119,122,124,120,123,122,121,120,120,117,120,121,122,121,121,122,120
120,122,121,119,121,121,122,120,119,121,120,122,120,121,121,119,122,124,119,119,119,121,121,122,120,123,123,122,122,121,122,121,120,119,121,122,123,121,121,121,125,122,119,123,121,120,121,119,123,122,122,123,122,120,120,121,118,123,123,123,121,121,123,121,116,117,120,122,122,121,122,119,120,123,121,122,121,121,119,120,125,121,119,121,121,121,122,120,118,120,121,123,121,122,122,121,119,119,120,121,122,121,121,119,123,123,122,121,122,121,119,120,121,124,121,122,121,121,121,122,118,121,122,122,122,120,122,118
121,122,120,123,122,121,122,121,123,120,120,118,119,121,120,121,123,124,121,123,121,121,121,120,118,118,121,123,121,122,123,121,119,122,122,123,121,122,121,120,123,122,121,121,121,120,120,120,123,124,121,123,121,120,121,120,117,122,121,124,121,121,121,119,116,116,121,122,122,121,120,120,122,123,120,122,122,120,120,121,123,125,121,122,120,121,121,120,119,122,119,119,120,121,121,121,117,121,120,122,122,121,121,121,126,121,122,119,121,120,119,119,119,124,120,124,121,121,121,122,118,116,121,121,121,121,121,120
118,122,122,123,122,121,122,120,120,121,121,122,120,121,121,121,125,125,120,123,121,121,122,119,120,120,119,121,121,121,122,119,119,121,122,120,121,121,121,121,125,123,121,123,120,121,121,122,121,123,120,120,121,120,120,121,119,120,123,123,122,122,121,120,117,120,121,122,121,121,121,118,122,127,121,120,121,121,121,121,124,122,120,124,122,121,120,119,117,121,121,121,121,122,121,121,117,117,121,122,121,121,122,120,123,123,121,119,119,119,120,120,123,124,122,124,122,122,122,122,120,120,121,122,122,121,122,119
119,122,121,122,119,120,122,119,120,126,119,121,121,121,121,120,120,121,124,123,123,122,121,120,118,120,123,120,120,120,121,119,119,118,120,122,121,121,122,118,120,119,119,122,122,121,122,119,124,125,122,122,119,121,121,121,122,122,119,122,120,121,121,121,117,120,121,120,121,120,121,120,120,120,122,124,121,120,120,121,123,123,123,122,121,122,121,119,119,120,118,124,123,121,121,118,120,121,119,119,119,121,123,121,124,121,122,122,120,120,120,121,121,122,121,122,122,122,121,121,120,122,122,121,123,121,122,120
119,120,123,121,120,121,121,119,120,122,119,122,121,121,122,120,122,123,121,121,121,121,120,121,120,121,122,123,122,122,123,120,116,118,122,123,121,120,120,120,123,123,121,120,122,122,121,119,122,125,121,122,119,120,121,122,117,119,122,122,123,120,122,121,120,116,119,122,122,121,122,120,125,123,120,120,120,121,122,120,123,122,121,124,122,121,120,121,116,120,120,121,121,121,122,123,121,120,121,121,122,122,122,121,122,123,122,125,122,120,120,121,122,123,121,121,119,120,121,121,119,123,121,124,122,120,121,119
118,116,118,121,122,122,123,120,125,118,121,121,121,121,121,120,123,126,120,121,121,121,121,120,120,119,123,122,121,122,121,119,117,119,121,123,121,121,123,121,126,121,120,121,121,120,120,121,120,125,120,123,121,121,121,121,118,118,121,117,120,122,121,121,115,119,121,123,122,120,121,118,121,121,122,122,122,121,122,121,124,122,123,122,121,121,122,119,120,121,119,121,122,121,121,121,117,121,122,121,120,121,122,120,121,124,121,121,122,121,121,121,121,127,120,122,121,121,120,120,121,124,122,122,121,121,121,119
117,117,122,122,122,121,122,120,122,122,120,120,121,121,121,119,125,121,119,122,122,121,122,121,117,120,122,121,120,121,121,120,118,118,120,121,120,121,122,120,126,121,122,122,122,120,121,121,122,124,120,119,120,122,121,119,119,123,120,123,122,121,122,120,117,117,121,120,120,120,122,119,124,124,121,123,121,120,121,121,121,124,121,124,123,122,121,120,119,120,120,121,121,121,120,121,118,120,121,123,122,122,121,119,123,121,121,122,120,121,120,121,120,124,121,122,122,121,122,123,119,122,124,124,121,121,122,119
119,117,121,121,122,121,123,120,121,122,119,121,120,121,121,119,120,123,121,123,122,122,121,123,120,123,120,122,121,121,122,120,118,120,120,121,121,121,122,119,121,119,119,119,120,121,121,118,123,121,123,122,122,121,122,121,124,122,120,121,122,121,121,119,117,119,121,121,122,121,120,120,120,119,121,122,121,121,122,120,122,124,121,121,120,120,120,121,117,120,122,126,122,121,122,121,118,118,121,122,122,122,121,121,121,124,120,121,121,122,121,118,123,125,123,123,120,121,121,120,117,121,121,123,122,121,122,122
119,119,119,121,120,121,120,119,121,122,121,123,122,122,121,120,122,124,122,121,121,121,121,120,119,117,120,122,122,120,120,119,119,118,122,121,122,122,122,119,124,120,122,121,121,121,122,121,122,125,121,123,122,120,120,120,119,121,120,123,122,121,121,120,118,119,120,122,121,121,121,120,124,125,121,121,122,120,121,122,124,124,121,120,121,121,120,122,117,116,122,123,122,122,121,119,116,121,122,123,120,121,121,121,121,122,121,120,122,121,120,119,122,123,119,122,121,121,120,121,119,122,121,123,122,122,121,119
115,121,121,121,120,120,121,119,120,122,119,122,123,121,120,119,124,125,123,123,121,121,121,122,119,118,123,120,121,121,121,119,121,121,122,123,122,120,121,119,122,124,120,122,121,121,122,120,121,125,121,123,122,121,120,120,119,120,122,121,121,121,122,121,119,118,119,122,122,122,122,121,120,124,119,121,121,121,120,121,121,122,120,123,122,121,120,122,118,120,121,120,120,120,122,119,120,118,120,125,122,121,121,119,122,125,121,120,120,120,120,121,127,121,121,121,123,121,120,120,117,121,120,123,123,121,121,119
120,119,122,119,117,121,120,121,123,123,121,124,123,121,121,120,121,125,122,122,121,122,122,121,120,120,121,123,121,120,121,119,121,120,120,122,122,121,121,119,122,123,121,120,119,121,120,120,122,122,121,123,121,121,121,121,118,122,121,121,122,121,122,121,116,119,121,121,122,122,123,118,125,120,122,121,122,121,120,120,121,127,120,123,121,122,121,119,121,121,122,123,122,120,121,121,118,119,120,123,121,121,121,119,121,121,121,122,122,121,120,122,123,122,122,124,121,121,121,119,120,123,120,118,119,120,121,119
117,117,120,119,121,121,123,119,121,119,121,124,122,121,121,119,125,121,121,124,121,122,121,122,118,119,119,119,121,121,122,121,118,119,120,120,122,121,122,118,122,124,121,121,120,121,122,122,122,124,121,123,122,121,120,120,118,118,121,124,122,121,123,119,120,120,120,121,121,120,121,119,120,123,121,121,121,120,120,120,121,123,122,123,121,120,121,122,120,120,120,119,120,121,122,121,119,121,119,121,122,121,120,118,123,122,122,123,122,121,122,119,122,124,119,119,119,121,120,120,119,119,122,123,122,121,121,120
119,121,120,120,120,122,123,122,121,120,122,122,121,122,120,120,125,124,123,122,121,121,120,121,119,121,122,120,120,121,122,120,115,120,119,121,120,120,121,120,121,122,118,124,123,121,120,119,122,121,121,123,121,120,120,119,117,121,122,121,120,121,121,121,119,119,120,122,121,120,121,120,125,120,121,122,122,120,120,120,125,124,121,121,121,121,120,120,118,122,122,121,121,121,122,119,116,117,121,123,121,121,123,120,124,123,121,121,121,121,121,120,123,124,121,120,121,122,120,120,116,120,120,121,122,121,121,119
119,116,122,123,121,122,122,120,121,122,121,122,121,122,121,120,121,123,120,122,122,121,122,121,117,121,121,122,123,121,122,121,119,120,121,117,118,122,122,119,118,121,121,124,123,120,119,119,123,120,121,123,122,121,120,121,117,119,120,123,122,121,122,121,119,118,122,123,121,121,121,120,122,122,123,123,119,119,120,119,124,125,120,122,122,120,120,120,119,121,121,122,122,121,121,121,120,119,121,119,120,121,120,119,122,119,120,123,121,120,121,120,120,124,122,122,122,121,121,122,121,121,120,122,119,121,121,121
120,120,120,122,120,121,121,119,120,121,122,124,121,121,120,119,122,123,124,122,121,122,121,121,119,119,120,120,121,121,122,120,118,121,119,119,121,120,122,118,123,121,120,121,121,121,121,120,123,127,122,124,121,122,122,122,121,118,121,122,121,121,123,121,119,119,120,121,122,120,121,121,123,121,122,123,121,121,119,119,124,123,121,120,119,120,121,119,117,121,120,122,122,121,121,120,119,117,122,123,123,121,122,122,124,122,122,122,119,121,120,118,121,124,119,121,121,121,119,120,116,121,123,122,121,121,121,121
120,119,120,122,121,121,122,119,120,122,121,122,121,120,122,120,120,123,121,122,121,121,120,121,122,122,123,120,121,120,121,120,120,117,121,122,122,121,121,120,122,122,122,122,121,122,120,120,122,123,121,122,121,121,121,118,119,123,122,123,122,121,121,120,120,118,121,121,120,122,122,121,120,120,121,121,121,121,121,119,122,127,121,121,122,121,120,121,117,122,121,124,121,122,122,119,117,121,123,123,121,122,122,120,122,121,121,122,121,120,120,120,125,126,120,121,121,121,122,122,118,121,120,120,121,121,122,120
119,120,122,124,122,122,122,119,121,122,121,119,118,119,121,121,120,123,122,121,120,120,119,121,119,122,119,122,122,122,122,120,120,121,120,121,122,121,123,121,122,122,120,121,122,121,121,120,121,121,121,123,122,121,120,118,122,121,121,120,120,121,122,122,119,118,119,122,122,121,122,118,124,120,122,121,120,120,119,120,123,120,121,123,121,121,121,122,118,121,122,121,122,120,122,120,116,120,121,121,122,122,122,118,119,125,121,123,121,121,122,121,124,126,121,120,122,121,120,121,119,121,122,123,122,120,121,118
118,116,122,120,119,120,121,119,120,126,123,123,122,120,121,121,124,124,121,122,121,120,121,122,117,119,120,122,121,121,121,120,118,120,122,123,122,120,121,119,124,122,120,119,119,121,121,120,124,123,121,123,121,121,123,122,117,121,121,122,122,121,120,118,119,120,121,122,121,121,122,121,123,123,119,123,121,121,120,121,122,121,119,121,121,121,120,121,116,120,119,120,122,122,121,118,121,120,122,121,120,121,122,120,122,123,120,121,121,121,120,121,121,122,122,121,121,121,120,120,121,122,120,122,121,121,123,120
119,119,119,120,120,120,122,121,120,121,120,123,121,121,120,120,124,126,121,123,122,122,121,120,118,120,122,122,122,121,122,120,117,118,120,121,121,121,123,120,121,123,121,122,120,122,121,120,123,124,122,121,121,121,121,121,118,123,122,122,122,120,121,119,118,117,121,121,122,122,122,120,125,119,121,121,121,121,121,121,124,125,119,122,121,121,121,118,121,122,121,121,120,121,121,118,116,119,121,122,123,121,123,121,121,124,121,121,122,121,121,120,125,124,121,123,121,121,120,121,121,121,122,121,120,120,121,121
115,119,121,120,122,121,122,120,123,121,121,123,121,121,121,119,122,124,122,121,121,121,121,119,120,121,120,123,121,121,123,122,119,121,119,123,122,121,121,120,121,124,123,120,120,121,121,119,124,123,121,120,119,120,121,121,117,118,122,122,123,121,121,120,122,119,120,122,121,121,122,121,119,123,121,123,122,121,121,121,120,124,120,122,122,121,120,118,119,122,120,118,117,119,122,120,118,117,122,125,123,122,122,121,125,120,121,123,121,121,120,118,124,122,121,119,119,121,121,120,119,126,121,121,122,121,121,119
116,117,121,123,122,121,122,121,121,121,118,121,122,121,122,121,123,121,122,122,121,121,121,121,118,120,124,122,120,121,121,119,120,120,119,122,121,121,121,118,124,120,122,122,120,120,121,121,124,122,120,124,122,121,121,120,121,122,120,121,120,121,122,121,119,121,120,122,122,121,122,119,123,124,121,122,122,121,120,120,120,123,121,122,122,122,120,120,116,118,120,120,121,121,122,121,121,119,121,122,122,121,121,120,121,121,121,120,120,120,121,121,123,123,121,124,122,120,120,120,120,118,120,121,121,122,121,120
119,120,119,123,121,121,122,118,119,123,123,123,121,122,121,121,124,125,122,123,121,121,120,120,119,118,121,120,121,121,121,119,120,120,120,120,121,122,122,119,121,121,121,123,120,120,120,119,123,124,121,121,121,121,121,119,118,122,120,121,122,121,121,119,118,119,120,123,121,122,121,120,123,121,122,123,122,121,120,121,125,124,121,122,121,120,121,121,119,117,121,122,123,121,121,119,118,122,120,119,119,120,123,121,122,120,121,121,122,121,121,122,123,127,121,122,121,121,120,120,120,121,121,121,119,121,121,119
119,117,120,123,121,121,122,120,122,123,121,122,122,122,121,121,121,124,122,122,121,122,121,123,118,118,121,123,121,121,121,120,119,121,120,120,121,121,121,120,122,119,120,122,121,120,120,118,125,123,122,122,122,121,121,121,120,125,122,121,121,121,122,119,117,118,120,122,121,121,123,121,121,122,118,121,121,121,121,120,123,126,121,122,122,121,121,120,121,121,122,121,119,120,121,120,119,119,120,122,122,122,122,119,123,122,122,122,122,121,121,120,124,125,120,122,121,120,121,120,118,121,121,120,121,122,123,122
120,120,121,120,119,120,121,120,122,121,121,122,120,120,121,119,125,123,119,122,122,122,121,120,117,120,121,124,123,121,122,121,118,120,122,119,121,121,122,122,121,120,120,122,121,120,121,120,122,126,120,122,121,121,120,119,118,117,121,123,122,122,121,120,122,119,121,122,121,120,121,119,121,123,122,122,121,121,121,121,124,123,120,121,121,121,121,122,119,120,122,122,121,122,122,118,120,120,122,123,122,122,121,120,123,120,122,121,119,120,120,121,121,124,121,123,122,121,120,120,118,119,119,123,121,121,122,120
117,121,119,121,122,121,122,121,126,123,118,119,119,120,121,119,122,122,124,122,121,121,120,120,118,122,121,122,121,121,122,121,121,119,120,122,122,120,121,120,122,122,121,122,120,120,120,122,124,126,121,121,122,120,120,119,118,117,121,121,122,121,123,119,119,118,120,123,120,121,122,121,120,119,121,123,122,120,120,119,124,124,122,122,121,121,120,121,119,119,123,123,122,122,122,122,118,120,120,120,121,121,121,119,119,123,122,122,121,122,121,120,124,118,121,123,122,121,121,119,117,121,121,124,120,120,121,121
120,119,120,119,119,121,122,120,122,122,122,125,123,121,120,119,125,126,120,123,121,121,120,121,122,120,120,120,121,121,122,121,117,120,120,123,121,122,121,120,122,121,119,122,121,121,121,121,123,126,121,118,121,121,120,119,120,120,123,124,122,121,120,119,118,115,123,123,123,121,121,121,123,119,119,122,120,121,121,118,125,124,120,120,120,121,120,120,118,122,120,122,121,121,122,119,117,117,124,122,121,121,122,120,123,118,122,124,121,120,120,119,123,125,122,123,122,122,121,122,119,123,121,120,120,120,121,120
121,120,120,121,121,120,121,121,122,123,121,123,122,121,120,120,121,123,122,125,122,122,121,120,121,120,122,118,121,122,122,120,119,123,121,122,123,121,122,119,122,123,122,122,120,122,121,121,122,123,120,122,121,120,119,119,120,121,120,123,121,120,122,120,121,120,122,121,121,122,122,121,123,120,122,122,121,121,121,119,121,124,120,123,121,120,120,119,123,121,122,122,121,121,121,120,117,119,121,122,122,121,122,121,121,122,122,123,121,120,120,119,122,123,121,120,119,120,120,120,115,123,122,123,121,121,122,121
118,119,122,122,121,121,122,120,122,121,120,121,122,121,119,120,125,125,121,123,121,121,120,120,118,122,121,122,121,121,123,122,118,118,123,123,122,120,120,118,121,120,121,121,119,119,121,123,125,127,121,124,122,121,121,121,117,119,120,122,122,121,122,119,116,120,119,121,121,121,121,119,120,120,121,122,121,121,120,120,126,123,122,122,121,120,121,120,120,120,120,123,121,121,122,121,121,124,122,121,122,122,122,120,121,121,121,119,119,120,121,121,123,123,119,121,121,122,121,121,118,124,121,122,122,121,121,119
121,119,121,122,121,121,123,121,125,121,120,121,120,121,121,122,123,125,122,121,121,121,121,119,119,120,122,122,121,121,121,122,118,117,119,122,123,122,121,118,121,122,120,123,120,121,121,122,122,124,122,120,118,121,121,118,121,121,120,121,124,122,122,120,118,117,120,123,121,121,122,120,119,124,122,123,121,121,121,120,123,126,121,122,122,121,120,121,118,116,121,123,122,121,122,120,117,121,123,122,122,121,121,119,123,118,120,121,121,121,121,121,120,125,121,123,120,121,121,121,119,120,120,120,122,121,122,120
116,117,122,122,120,120,122,120,124,119,121,121,121,121,120,120,126,122,120,120,122,121,120,121,117,123,121,121,121,121,122,121,120,118,120,120,122,121,122,120,120,123,121,122,121,120,122,120,126,122,119,120,120,121,121,122,119,118,121,123,121,121,122,119,116,118,121,123,123,121,121,119,120,120,121,120,122,121,120,119,125,125,121,122,120,121,122,123,117,121,120,123,122,122,121,119,116,119,119,123,122,122,122,120,124,122,121,121,121,121,120,119,125,124,120,122,121,121,121,120,121,119,120,121,122,121,122,121
116,119,120,121,122,121,122,119,121,119,119,122,120,121,121,122,120,123,121,121,121,121,121,122,120,122,122,121,121,120,121,121,117,117,120,119,119,121,122,119,122,121,121,122,122,121,121,122,121,126,119,121,121,121,121,121,122,120,120,121,121,121,122,121,118,121,121,122,122,121,121,120,124,119,120,122,120,122,121,120,124,122,122,123,122,121,120,118,116,124,122,120,120,121,121,122,119,119,120,123,122,121,122,119,119,117,121,122,121,121,120,120,122,125,120,120,122,122,120,122,121,119,121,123,122,121,122,121
119,119,120,121,120,121,122,120,120,120,119,122,122,121,120,121,121,124,122,122,121,121,121,120,120,125,121,121,121,121,122,121,119,123,121,120,120,120,121,120,121,122,121,122,122,120,120,119,127,122,121,121,121,121,120,119,119,117,122,123,121,122,123,121,119,120,120,121,121,120,121,120,120,121,120,122,122,121,120,119,123,123,121,121,121,120,122,122,119,122,120,122,120,121,123,120,118,123,120,122,121,121,122,121,122,123,123,122,121,121,120,120,124,119,120,120,121,121,120,119,119,121,120,124,120,121,122,121
119,120,121,120,120,121,122,121,122,119,119,122,121,121,120,121,124,125,122,122,120,121,122,120,120,120,121,121,122,121,121,120,117,119,122,121,121,122,122,119,118,120,121,123,122,121,122,122,124,123,120,124,121,121,120,120,119,123,122,122,122,121,122,119,117,121,120,120,121,121,121,120,121,119,119,121,121,121,122,119,125,119,121,125,122,122,121,119,118,121,122,121,120,121,121,119,116,122,120,122,122,121,121,120,120,121,120,122,122,121,121,119,127,123,122,121,120,120,120,120,120,122,122,124,123,121,121,121
118,116,120,122,121,122,123,120,120,123,121,123,122,121,120,122,122,124,123,121,121,121,120,121,120,122,120,124,122,120,121,121,118,118,122,122,122,121,121,119,121,122,120,120,122,122,122,122,123,126,121,121,120,122,122,122,119,119,120,122,121,120,121,119,117,117,122,122,122,121,123,121,122,121,123,122,123,121,120,120,124,125,120,123,122,121,122,121,119,122,119,122,121,121,121,120,118,118,118,119,119,120,121,120,119,118,122,121,121,122,121,120,122,123,120,122,122,121,122,119,121,123,122,122,122,121,121,121
119,120,121,121,120,121,121,120,121,118,120,122,122,121,121,118,124,125,120,122,121,122,120,119,122,123,122,122,121,120,121,123,117,118,121,121,121,120,122,120,119,117,119,122,122,121,121,120,122,124,121,122,122,122,120,120,119,122,122,120,121,121,121,121,120,117,122,123,122,121,121,120,119,120,121,120,119,121,121,120,122,126,121,121,120,120,121,122,122,122,119,123,122,122,122,119,118,119,120,124,122,121,121,118,121,120,120,121,122,121,121,120,121,119,120,123,121,121,120,121,116,120,121,121,120,121,121,120
120,120,122,123,122,121,122,120,123,121,123,121,122,120,121,121,125,125,121,123,121,121,119,119,120,119,123,122,121,120,122,120,118,120,121,121,121,120,121,119,123,117,120,123,121,120,121,121,120,123,121,123,121,121,121,121,119,124,119,119,121,121,123,119,120,121,120,121,123,121,122,119,123,121,122,120,119,120,121,120,123,120,121,125,123,121,121,121,118,121,120,122,121,121,122,119,120,119,121,119,121,122,123,121,120,120,120,122,122,122,122,119,122,123,121,122,122,121,119,120,122,120,122,122,122,122,121,120
119,123,119,121,121,121,122,119,119,121,121,123,122,122,121,121,123,126,122,122,121,121,121,121,118,122,122,124,121,121,121,120,119,120,121,120,121,120,121,122,121,123,120,121,123,121,121,119,125,115,119,121,120,122,120,119,118,125,121,122,121,120,121,120,115,119,120,123,121,121,122,121,123,124,121,123,122,121,122,121,125,123,122,123,123,122,122,121,120,120,122,123,121,121,121,120,120,138,127,123,123,123,123,121,123,121,122,124,123,122,121,121,122,113,112,120,120,121,121,121,119,120,122,121,121,120,120,120
120,119,121,122,121,121,123,121,119,122,122,120,121,121,121,117,120,125,121,124,122,121,121,120,120,121,121,122,122,122,118,121,117,118,120,121,121,120,128,122,122,124,122,122,121,121,120,121,123,123,121,123,122,121,121,120,119,120,121,122,121,121,121,119,119,117,119,121,121,120,120,118,120,119,118,120,121,121,121,119,124,126,123,124,123,124,119,119,118,122,121,118,120,121,121,121,121,120,124,121,121,119,121,120,121,123,121,123,122,121,121,122,127,123,121,121,121,120,121,124,120,119,120,122,121,121,121,117
119,119,121,123,120,119,121,119,119,121,123,122,122,124,122,119,121,123,121,124,121,121,121,120,121,127,121,124,120,121,120,120,117,124,121,121,121,121,122,120,122,121,119,121,121,121,122,121,125,120,120,121,122,122,121,124,116,122,124,122,122,121,122,120,123,121,120,121,120,121,121,119,121,122,122,122,121,121,120,120,124,126,119,121,120,120,121,120,120,123,117,119,120,120,122,120,117,119,123,123,122,121,123,121,119,121,122,121,122,122,122,118,124,123,121,123,121,122,121,121,119,120,122,124,121,120,121,119
121,119,121,121,121,121,122,122,116,120,118,120,122,121,120,118,123,125,124,121,121,120,120,120,119,125,121,123,122,122,121,120,119,119,120,120,120,120,124,120,121,117,123,122,120,121,116,116,126,128,119,119,122,123,120,122,120,121,120,121,121,119,121,117,121,119,122,120,120,124,125,123,117,122,121,124,121,122,127,121,123,122,121,122,119,115,113,117,118,123,120,121,120,118,119,121,113,119,124,123,121,127,128,120,127,120,119,121,122,124,122,124,126,123,122,123,122,122,124,120,115,124,121,124,118,110,114,120
115,116,118,122,123,126,120,117,125,121,119,120,122,123,125,122,122,129,123,122,123,127,133,126,121,122,125,122,118,104,109,119,117,119,122,125,123,122,118,118,120,119,114,118,120,121,125,121,122,125,125,124,122,124,122,121,118,125,119,123,120,119,121,119,120,121,128,126,124,125,120,113,115,119,120,124,122,119,121,120,123,123,114,116,122,128,127,119,121,118,119,123,124,120,116,121,121,118,122,122,121,124,126,120,115,120,125,126,124,118,120,118,129,125,121,120,117,117,117,120,122,121,126,124,123,124,122,120
115,118,109,114,119,119,122,118,119,120,126,125,118,111,121,122,120,123,119,123,124,130,118,126,125,122,120,123,122,122,122,124,115,121,121,121,120,120,123,123,121,122,127,124,123,122,122,123,121,119,114,115,117,119,120,119,118,120,121,122,126,126,121,120,119,120,119,121,122,119,121,117,119,119,120,122,121,120,121,118,124,120,124,123,122,123,121,122,123,122,120,125,122,122,121,119,118,120,122,120,119,120,121,121,120,121,118,120,121,122,121,120,121,122,127,126,122,121,121,122,116,123,124,128,125,124,123,120
113,122,120,119,121,122,122,118,125,120,118,120,122,122,120,119,122,123,121,126,122,123,123,120,121,124,121,117,123,124,123,122,119,119,122,123,122,126,126,121,122,121,117,119,122,117,118,121,125,124,118,117,119,126,123,122,118,122,127,127,123,121,126,122,116,119,115,116,118,118,116,114,120,118,119,121,123,119,119,121,123,122,121,125,119,119,120,121,121,120,122,121,118,118,123,119,117,120,123,122,122,124,123,119,123,121,126,126,121,123,124,119,123,125,104,111,118,115,113,121,120,124,134,130,123,124,124,120
118,118,112,118,120,125,119,118,118,118,132,129,125,123,122,121,125,126,120,125,122,121,120,122,120,120,105,106,116,121,122,121,116,116,119,120,121,120,124,121,121,120,128,130,124,123,119,119,126,124,120,119,121,120,114,120,121,123,124,127,121,118,123,118,118,119,117,119,122,124,123,122,124,119,127,129,124,122,122,122,124,118,89,96,119,128,121,122,124,121,127,127,124,130,129,118,114,119,124,122,117,112,117,121,116,122,122,125,126,127,119,119,125,126,119,122,122,123,123,124,119,123,122,123,121,119,120,121
120,120,122,122,123,121,122,118,117,119,125,124,123,121,120,118,126,122,106,111,119,120,120,121,120,125,123,121,119,118,121,120,117,121,128,126,124,122,121,120,118,123,118,123,120,126,125,120,125,121,121,123,123,117,118,120,119,116,126,119,117,119,120,122,118,115,106,115,122,122,121,119,124,119,129,125,122,124,124,123,121,128,121,122,121,120,121,122,121,122,123,124,122,125,122,121,120,120,122,121,120,119,123,114,121,121,123,124,124,116,113,121,122,128,121,122,120,121,119,123,119,121,125,123,121,124,123,118
117,118,115,119,121,116,118,119,120,120,126,125,120,120,122,118,121,128,102,104,117,118,121,122,120,124,122,120,121,121,122,120,119,122,124,126,122,122,120,117,117,120,123,123,121,121,123,121,124,126,121,124,122,120,120,121,123,121,121,120,124,122,122,119,120,115,120,121,124,127,122,119,116,111,120,118,119,119,121,118,121,125,123,126,121,122,119,119,119,126,125,125,122,122,122,119,119,119,116,116,118,116,115,118,118,124,124,125,124,124,123,120,127,126,119,120,121,131,120,124,119,126,125,123,122,118,116,117
117,118,118,120,121,117,121,120,117,116,122,121,122,121,120,119,127,128,123,120,119,124,125,122,117,119,124,125,123,121,119,121,121,119,118,118,120,121,122,120,118,123,125,124,121,121,120,119,123,124,119,122,120,122,120,121,120,121,114,119,121,120,120,118,118,119,121,124,122,122,120,119,121,118,123,123,121,122,123,120,122,127,124,124,121,118,119,120,116,123,114,117,120,121,121,121,121,118,116,118,120,120,122,118,123,119,123,123,119,120,122,120,125,126,122,125,123,123,120,121,119,120,120,122,119,116,127,122
119,120,125,124,130,138,119,121,120,119,118,119,118,123,124,121,125,129,118,118,119,121,121,124,119,119,123,122,120,119,122,121,117,117,122,123,120,120,122,118,121,120,120,121,120,123,120,117,124,124,126,123,120,119,120,122,120,120,127,124,120,117,117,120,118,116,113,118,120,122,122,118,123,119,127,127,122,118,122,121,123,125,121,122,123,126,122,123,117,120,119,119,119,118,118,119,117,121,121,119,121,123,121,119,119,122,134,129,121,119,121,119,123,124,109,116,120,121,120,119,121,118,119,121,117,117,123,121
120,120,126,128,130,120,116,117,118,120,125,123,122,122,124,120,125,125,117,117,119,119,121,121,121,123,121,123,119,119,120,121,121,121,124,122,121,122,123,120,117,121,124,125,122,118,117,120,123,121,104,113,120,119,120,120,122,123,124,125,123,123,121,120,118,119,127,123,120,120,122,117,118,120,120,119,121,120,120,117,124,128,125,123,123,124,121,123,120,123,127,125,122,120,120,120,115,119,118,122,121,121,122,120,122,119,121,120,120,120,122,120,123,127,122,125,122,119,120,124,122,123,121,123,124,122,122,121
115,115,123,122,123,123,122,119,123,116,114,123,121,124,125,121,123,126,130,127,121,114,114,120,118,122,109,110,119,124,125,121,118,123,123,124,124,122,120,119,119,120,124,122,121,124,124,117,124,123,119,121,119,118,121,124,119,121,120,122,121,119,118,117,120,117,120,123,123,120,121,120,121,122,123,123,122,118,120,119,124,125,126,123,117,119,121,120,121,125,127,126,126,130,123,122,115,119,110,117,119,119,120,119,120,121,120,114,121,121,122,119,121,124,126,129,124,121,120,123,122,123,126,123,124,123,123,122
116,119,123,125,122,122,122,118,119,120,118,120,119,120,119,119,126,127,123,123,122,123,120,122,121,123,122,123,123,122,122,121,119,115,119,118,118,115,118,117,120,116,124,123,124,121,120,118,123,125,115,117,119,119,122,122,118,124,122,121,121,124,117,121,117,120,121,125,122,120,122,119,122,118,123,121,121,121,122,121,122,122,118,122,120,123,122,121,119,123,116,119,121,121,122,119,118,121,122,120,121,121,123,118,121,119,122,120,122,118,118,119,121,121,121,125,121,121,120,123,121,118,125,122,122,121,124,121
120,122,118,124,124,121,120,120,123,118,110,114,118,119,119,119,124,124,127,125,122,121,121,121,123,124,122,122,122,125,123,120,115,122,123,123,122,121,120,118,117,122,123,123,122,121,122,121,124,125,121,125,122,122,122,120,121,123,115,113,119,121,118,121,118,119,126,124,121,121,122,119,121,121,122,123,121,117,119,120,124,121,121,121,120,123,122,121,119,122,124,123,122,121,120,118,119,116,120,120,123,124,124,122,116,120,119,121,120,120,121,120,123,122,118,121,120,123,124,121,121,123,121,123,124,122,120,122
117,119,126,127,123,124,123,119,122,116,110,111,119,120,121,121,124,126,126,123,122,120,118,118,122,122,124,122,120,124,123,121,118,121,118,121,122,119,119,120,119,122,126,127,120,121,122,120,125,126,121,126,126,124,119,121,119,120,110,109,117,119,120,119,116,121,124,121,120,119,123,119,121,119,125,126,123,124,124,120,124,122,121,126,122,121,118,120,120,123,118,116,120,122,123,119,115,117,121,121,121,123,123,119,122,121,116,117,122,125,122,120,122,125,122,124,120,118,119,122,122,122,121,121,122,120,118,119
120,120,122,121,122,121,121,118,118,121,122,124,122,126,125,120,125,123,123,122,120,118,119,122,122,121,120,122,120,119,119,120,118,117,123,124,121,117,122,118,121,121,113,116,124,125,121,121,124,126,124,121,121,120,120,122,120,125,124,123,120,119,121,121,117,118,119,122,123,122,122,118,120,119,122,128,121,120,121,120,124,122,114,115,118,118,119,123,119,124,122,122,121,121,121,121,118,118,124,125,121,121,123,118,118,120,103,104,116,119,122,122,125,122,123,125,122,119,118,121,122,121,121,123,122,126,125,122
119,117,123,121,121,119,121,116,117,119,117,118,119,114,117,121,127,125,123,123,122,125,124,122,119,123,118,120,120,122,123,122,117,121,124,122,121,119,120,120,116,116,121,122,119,120,123,118,124,122,121,125,123,122,120,121,121,121,116,118,119,119,119,121,119,125,121,124,122,123,126,119,123,121,114,115,117,116,119,119,125,125,124,122,121,122,123,120,118,121,126,124,123,122,122,122,114,120,118,121,119,117,122,119,121,119,114,120,123,127,123,120,124,125,125,120,118,118,120,121,121,121,116,120,123,121,121,121
116,125,124,125,125,124,121,121,118,122,125,125,122,121,123,120,124,124,113,118,120,120,117,120,122,120,124,121,119,118,122,121,122,121,121,121,122,129,128,120,116,120,123,123,119,115,119,122,123,126,120,123,123,124,123,121,119,122,122,121,121,118,120,122,118,118,122,120,119,120,122,119,122,121,122,124,123,121,122,119,120,123,125,124,122,123,123,123,120,123,121,126,121,120,120,118,118,121,122,121,122,121,121,119,121,118,125,126,124,123,123,120,124,125,117,118,123,125,122,121,120,123,122,124,123,122,122,121
120,119,124,123,121,116,120,120,121,118,108,112,121,126,126,119,126,125,129,128,122,118,116,123,119,122,123,121,121,124,123,119,118,123,126,123,120,114,116,117,118,118,117,120,122,124,124,121,125,126,120,119,119,121,123,123,115,120,121,124,120,120,121,122,119,119,121,123,121,120,122,118,121,120,121,123,122,118,117,119,124,122,117,119,124,126,122,121,119,122,124,123,121,113,117,120,120,124,121,122,122,121,118,118,120,119,126,124,122,122,123,120,123,124,122,124,119,120,120,122,122,122,126,122,120,115,117,117
123,119,124,126,123,124,124,119,118,117,114,118,123,124,122,119,121,127,131,126,121,121,120,121,124,122,116,119,121,124,125,121,121,120,126,126,124,121,120,119,121,119,119,119,119,119,121,121,122,121,119,118,120,122,120,121,121,126,123,124,122,121,123,121,118,118,119,120,120,121,120,122,119,120,118,115,119,119,121,118,125,125,122,121,120,121,121,120,118,125,127,126,122,119,121,121,117,114,110,113,117,116,118,117,121,118,125,124,121,120,122,119,122,123,122,123,120,116,117,120,121,122,125,122,122,128,124,119
118,118,116,119,119,118,122,121,121,117,126,125,124,124,118,119,120,123,121,123,121,120,120,120,121,123,112,116,119,122,121,120,119,119,123,120,123,120,122,120,118,119,130,128,122,121,121,119,120,123,116,121,121,121,121,121,122,125,115,116,120,121,121,120,120,119,124,123,122,122,123,118,119,117,113,119,120,119,118,121,127,123,122,124,123,126,121,124,122,122,126,125,119,114,122,120,119,120,117,117,120,121,121,118,120,119,121,123,122,122,124,120,124,125,125,122,119,117,116,121,120,122,123,124,123,123,121,120
119,123,120,123,121,123,122,121,118,122,122,122,124,122,125,117,124,122,124,124,121,119,117,120,121,119,114,115,120,117,120,119,117,120,123,122,121,121,121,121,119,117,127,129,123,122,121,118,125,123,120,122,120,122,122,119,119,123,118,118,123,121,120,119,118,120,120,121,120,122,120,121,118,119,125,124,122,122,121,121,123,125,124,125,120,121,121,121,122,123,120,122,121,121,122,120,119,122,129,125,120,121,125,120,120,120,113,121,125,123,120,121,122,122,123,121,122,125,120,120,121,122,124,124,120,121,122,122
117,120,121,120,121,122,121,120,120,122,120,119,121,120,120,121,123,124,123,121,120,121,122,123,124,123,124,124,121,124,124,122,116,118,115,118,121,119,116,117,121,117,120,120,119,119,123,120,124,124,125,124,122,122,121,120,123,122,123,123,122,121,121,120,115,120,111,114,120,121,122,119,118,120,122,124,121,120,121,118,122,126,126,123,124,122,121,120,124,122,122,124,122,123,121,122,116,121,123,124,121,121,121,118,119,115,114,122,121,122,121,119,124,125,123,120,121,121,121,120,117,123,123,122,122,123,122,122
118,117,119,122,121,119,120,118,119,119,121,123,121,121,121,120,124,123,116,119,118,117,120,122,121,126,125,125,122,124,122,120,118,121,121,121,120,117,120,119,122,117,121,122,122,127,124,119,126,119,122,123,121,121,121,120,119,124,122,122,122,119,119,121,117,119,117,117,120,122,122,120,119,123,121,123,120,120,122,120,126,123,126,125,122,121,121,121,123,122,100,111,119,119,121,120,117,118,122,120,123,124,123,119,120,119,121,123,121,120,121,118,122,123,126,123,120,120,120,124,119,124,123,124,120,119,122,119
119,118,118,121,126,124,119,120,119,117,122,121,122,121,121,121,123,126,124,125,122,120,121,119,121,123,124,122,119,120,124,121,119,121,119,119,122,123,119,119,121,119,124,122,121,122,122,121,122,123,117,120,120,120,119,117,120,124,118,119,117,119,122,120,118,121,124,123,120,118,119,117,122,115,122,123,125,125,121,120,123,125,123,123,119,118,119,121,119,120,119,120,121,120,121,120,121,120,123,123,121,121,121,119,115,120,124,121,121,119,120,120,125,125,124,125,121,120,120,120,123,121,117,122,121,122,125,121
117,121,122,123,122,122,122,120,119,118,116,119,121,118,116,117,126,122,122,124,124,126,123,122,121,122,126,125,122,121,125,120,120,121,124,125,123,123,122,121,116,117,111,117,120,118,114,118,123,123,125,123,121,121,122,122,124,122,122,125,123,121,123,122,120,117,121,122,121,127,127,118,119,120,120,122,121,118,116,119,123,124,118,120,120,121,122,121,121,123,121,124,123,119,117,121,119,120,119,118,121,128,125,120,121,120,119,116,118,118,121,119,120,129,128,126,122,123,121,121,123,122,124,124,121,122,121,121
118,118,109,115,120,118,119,118,118,115,114,117,121,124,123,118,123,127,126,124,121,121,120,122,120,124,120,122,121,120,122,120,120,119,121,126,121,124,124,120,115,121,114,117,120,115,120,119,123,124,125,126,123,124,118,120,122,126,124,122,120,121,123,121,121,119,119,121,120,118,120,121,118,120,121,119,119,118,118,116,123,123,121,121,121,121,121,121,121,124,122,121,120,119,120,121,121,121,119,121,119,119,125,121,120,120,120,122,119,110,112,119,121,120,120,122,121,123,123,120,121,124,116,116,119,122,124,121
122,117,123,124,122,121,121,119,119,121,123,120,121,121,123,121,122,127,123,128,123,122,121,121,121,122,112,114,119,121,120,122,120,118,117,120,121,121,121,118,117,118,128,125,123,122,121,119,122,122,124,124,120,119,120,122,122,123,115,118,120,122,120,120,118,120,121,122,121,124,128,121,118,121,121,122,120,117,115,121,123,124,118,120,121,122,121,118,123,122,119,120,122,124,123,123,118,119,120,120,120,120,121,118,119,121,123,121,121,120,120,120,123,125,125,123,121,121,122,122,120,118,117,122,120,118,121,122
118,115,119,119,120,119,117,118,119,117,116,117,124,123,122,121,124,124,125,124,121,122,122,120,119,124,121,122,121,124,122,121,119,122,122,121,121,118,118,119,120,119,121,121,121,121,123,116,127,123,124,124,122,122,120,120,118,120,115,116,120,122,120,120,118,122,130,126,122,119,119,119,122,116,118,121,121,121,123,120,123,122,118,123,123,122,119,121,120,121,127,122,119,120,122,119,117,121,118,119,122,119,120,117,116,121,125,123,119,118,121,122,124,125,120,123,125,124,123,124,121,121,120,121,121,120,119,117
121,121,123,123,121,120,120,119,122,119,123,122,122,124,124,119,125,121,119,119,119,118,116,120,121,124,124,123,123,121,122,121,116,120,122,126,122,123,122,119,120,120,122,119,117,118,120,120,121,120,125,123,121,120,119,120,122,121,115,119,120,122,123,123,120,119,124,123,120,119,119,121,121,121,124,123,120,121,121,120,123,126,124,126,123,121,120,122,123,123,112,116,119,118,120,121,118,122,125,125,122,121,122,121,119,117,119,120,121,123,123,119,123,126,125,124,121,123,125,121,121,125,119,120,121,119,118,121
117,116,117,120,121,121,119,118,119,117,123,122,120,127,122,117,123,123,118,120,120,119,120,121,124,124,121,121,121,122,128,124,119,121,125,122,121,120,116,121,115,119,122,123,118,119,119,118,124,122,113,116,119,120,122,121,121,121,124,126,122,122,122,120,117,120,113,117,119,118,121,121,120,117,126,124,122,119,120,118,124,125,121,122,121,123,121,122,121,121,124,123,118,120,122,119,117,118,111,116,118,119,120,119,119,122,127,125,122,121,121,118,122,126,125,126,122,121,125,121,121,123,120,119,118,116,119,123
117,119,122,122,124,126,122,119,116,119,126,126,118,115,122,120,124,121,110,115,121,121,119,119,122,121,124,124,120,120,121,120,119,121,122,123,121,117,120,119,121,118,120,119,124,125,123,123,119,126,121,123,121,123,120,121,120,122,121,121,120,122,121,119,119,121,117,120,119,119,120,118,119,120,123,121,122,122,123,122,123,122,120,124,122,119,119,120,125,122,123,123,121,122,123,118,117,121,114,116,121,124,123,121,121,120,122,125,121,123,122,118,123,125,119,119,120,120,120,122,119,122,126,127,122,120,122,121
117,121,122,120,119,120,121,119,119,120,120,121,121,121,121,120,125,124,121,122,122,121,121,120,121,121,122,122,120,120,121,120,120,120,121,123,122,121,121,118,118,117,119,120,118,118,126,122,125,125,124,124,125,125,116,120,122,122,121,121,121,122,125,120,117,121,122,121,119,118,120,119,119,120,119,121,123,123,124,120,121,126,123,123,121,120,121,121,120,123,123,120,120,121,122,121,121,119,120,121,119,121,117,119,116,119,120,121,120,118,122,120,127,123,121,123,123,124,120,122,120,123,117,122,121,120,122,120
117,122,126,121,123,122,120,119,118,120,133,129,122,120,121,120,124,123,114,113,118,122,121,121,122,124,114,119,120,114,113,119,118,119,126,126,122,121,121,118,117,123,123,125,122,121,122,120,122,124,122,124,122,119,122,120,124,121,122,123,123,123,120,120,121,119,120,120,121,123,126,121,119,122,122,123,125,121,119,120,120,126,126,124,119,118,121,123,123,119,120,122,123,123,123,121,118,119,122,122,120,116,121,119,121,122,125,125,124,128,123,120,120,123,122,121,121,120,120,120,122,123,116,119,119,117,119,120
118,122,121,125,121,120,122,118,118,118,121,125,122,123,123,121,126,125,118,123,125,120,118,123,120,119,117,119,118,118,118,120,119,121,123,121,124,129,125,121,119,118,122,124,123,125,126,120,122,121,120,123,121,123,124,120,121,123,121,121,118,109,107,117,122,122,120,123,122,128,131,122,119,120,123,123,117,114,112,118,123,121,114,121,125,125,122,121,121,123,128,126,123,124,123,119,121,121,115,118,120,122,118,120,119,123,121,119,122,121,120,119,127,121,123,127,126,125,124,120,123,123,120,122,118,120,122,119
119,118,107,109,119,120,121,120,116,119,126,126,123,121,123,119,122,123,127,123,122,120,119,121,116,122,116,118,120,121,120,122,121,122,126,129,123,121,122,119,117,120,120,121,122,122,122,120,120,121,119,122,122,125,123,123,127,122,123,121,121,120,120,120,115,119,122,127,123,120,121,121,118,117,115,114,118,115,120,119,121,127,121,126,124,127,122,120,122,124,120,121,121,123,123,123,122,121,122,124,124,114,112,121,120,121,123,120,120,120,123,118,120,121,123,124,122,125,128,120,123,125,117,122,122,119,115,120
121,117,121,122,120,123,126,123,120,123,125,123,123,119,117,119,123,125,117,120,119,119,125,123,121,123,114,120,121,126,120,121,119,122,119,121,120,116,116,115,117,120,126,127,126,127,123,123,122,118,119,119,121,124,127,122,121,122,112,113,118,113,113,119,115,120,130,129,124,124,125,120,116,120,113,116,120,122,122,120,124,123,123,124,122,123,121,118,123,124,124,124,122,118,119,119,119,118,120,122,122,127,122,120,116,119,120,119,120,122,121,116,125,123,119,122,120,123,123,120,127,124,122,126,122,122,124,124
117,122,114,115,119,118,115,119,115,116,127,122,123,119,121,120,121,125,121,120,122,123,122,121,122,124,123,126,122,124,123,121,118,118,117,115,115,116,120,117,119,117,119,123,128,130,120,123,120,122,125,124,121,119,118,121,123,121,117,123,125,124,127,120,122,121,126,124,124,117,118,123,116,119,120,125,125,132,127,120,124,126,125,122,121,120,119,119,122,128,124,123,122,123,123,120,116,119,119,119,120,132,119,118,121,120,119,120,122,120,122,119,122,124,122,123,123,122,123,122,120,122,127,126,122,120,121,119
123,120,114,117,119,119,121,121,122,120,129,124,122,122,122,119,126,125,114,118,121,120,119,121,119,119,125,122,120,123,122,119,114,118,111,115,115,116,118,118,115,124,126,128,123,111,115,117,120,124,122,124,120,124,124,120,120,123,121,119,119,123,125,122,117,116,120,122,121,116,117,118,117,119,115,116,118,121,124,117,124,124,121,124,122,122,118,123,123,125,116,120,118,112,123,121,119,117,128,125,126,123,120,120,118,121,113,113,119,118,117,120,123,122,116,119,119,121,123,121,123,123,123,125,125,125,123,123
119,120,122,123,121,121,121,119,115,120,125,124,121,123,125,120,122,120,111,117,119,118,116,121,124,126,117,117,121,125,123,120,116,118,120,123,123,122,123,122,117,118,119,119,121,121,121,119,121,122,124,125,122,122,121,120,122,127,115,120,121,122,124,121,121,124,118,117,121,120,118,118,119,117,118,125,122,122,121,119,123,123,126,122,124,126,123,122,118,120,122,124,120,117,121,124,122,116,125,126,122,122,120,118,118,121,117,121,119,111,122,120,122,127,124,123,120,119,113,120,121,123,123,122,120,123,124,122
117,120,120,121,123,123,122,117,117,118,124,123,121,110,116,121,125,123,119,123,123,131,124,120,124,123,124,124,121,122,123,122,119,117,120,122,121,119,122,121,116,120,128,123,123,122,121,119,125,127,116,119,119,119,119,121,121,123,119,120,119,120,120,122,122,125,118,119,121,122,120,121,118,117,121,124,118,113,122,119,122,120,118,125,127,125,122,122,122,122,100,102,115,120,117,119,118,121,127,126,123,121,123,119,120,120,126,126,126,129,123,121,120,122,123,125,121,121,123,121,120,121,117,119,120,119,118,117
118,119,122,124,120,123,124,122,116,120,122,122,119,115,120,120,121,126,120,124,127,126,120,122,123,120,116,119,122,126,125,121,120,121,122,119,120,121,120,121,119,121,126,123,121,125,124,121,120,122,121,124,120,119,113,119,124,124,122,124,121,122,122,120,119,120,115,118,121,121,121,121,118,119,124,125,123,122,122,120,123,121,121,123,121,121,122,121,123,121,125,126,124,128,124,123,117,118,121,122,121,123,122,117,118,121,123,119,120,118,117,119,121,124,117,125,121,129,120,120,122,122,123,122,121,119,118,120
121,120,127,125,121,121,127,121,116,119,111,111,117,120,119,116,122,120,121,122,123,116,117,121,122,122,125,126,121,126,126,121,122,121,124,125,122,113,116,118,118,121,122,122,121,120,126,120,116,121,121,121,123,123,118,120,122,126,116,119,120,121,124,122,123,121,120,122,123,125,119,120,119,120,124,123,121,120,121,117,119,120,121,124,122,123,122,123,122,125,124,119,118,118,117,119,118,119,114,117,120,131,129,120,118,119,125,125,121,110,113,119,123,120,113,116,119,122,122,123,121,123,123,126,123,128,125,121
119,123,132,127,122,119,117,118,118,121,130,129,122,119,114,119,118,118,115,112,117,118,126,122,122,124,126,128,126,123,115,120,119,119,124,126,123,119,123,118,118,121,115,120,123,128,125,120,119,122,126,124,120,115,113,118,124,125,121,122,120,124,126,124,119,121,119,122,124,121,125,122,115,117,121,121,120,120,123,117,120,121,120,122,120,118,119,123,124,123,121,123,122,121,123,120,123,120,121,120,120,121,122,120,117,119,120,122,122,120,120,118,122,122,129,124,121,125,123,121,123,121,123,121,121,111,116,118
115,116,109,117,119,122,121,119,119,116,117,119,122,124,123,120,122,123,116,114,118,120,123,120,123,125,128,127,122,120,121,122,119,120,121,119,125,132,122,121,118,118,123,124,121,115,121,119,121,124,121,121,124,137,123,121,120,121,120,123,116,108,121,122,118,119,122,125,126,122,114,119,120,117,124,122,122,125,127,117,120,123,125,123,123,125,126,123,123,126,121,121,123,131,120,122,118,120,126,127,120,116,117,116,120,111,77,84,114,122,122,122,123,127,127,131,123,122,122,122,126,123,126,123,118,115,122,121
119,118,123,125,127,123,121,122,117,116,116,120,121,121,122,116,121,121,125,124,118,110,113,120,122,124,126,122,121,121,124,123,120,118,118,121,121,123,124,120,119,116,127,125,121,121,123,120,121,124,114,117,119,121,122,119,121,126,120,120,119,120,120,122,118,120,126,124,122,123,124,117,117,119,125,123,121,122,118,121,126,121,113,117,118,118,121,121,124,126,126,126,121,122,124,122,120,122,109,116,122,125,121,120,119,120,123,126,124,117,123,121,119,122,123,125,121,124,123,121,121,124,116,117,123,123,123,120
119,116,123,123,121,122,122,120,120,119,122,123,121,122,123,119,121,122,112,119,122,127,123,122,121,129,128,123,119,118,115,117,121,116,118,119,121,125,126,122,121,119,113,116,118,117,120,120,121,121,123,125,120,122,121,119,123,121,118,124,123,121,120,124,122,123,122,122,122,117,119,120,116,119,124,123,124,126,125,121,125,123,119,121,121,117,116,119,121,122,123,124,121,119,123,122,120,118,122,121,123,125,123,121,115,118,118,123,122,121,122,120,123,125,130,126,122,123,123,119,124,124,100,108,117,115,118,120
118,118,129,127,123,125,124,120,114,119,123,126,121,120,119,119,119,125,119,119,120,119,119,120,121,120,123,123,122,132,127,120,119,120,120,123,120,111,116,120,119,122,125,123,129,140,124,120,124,127,120,123,120,119,121,119,122,123,119,121,120,120,122,123,117,119,122,125,122,119,122,118,119,121,121,118,120,125,123,121,120,119,119,119,120,121,120,120,123,126,127,127,124,122,122,120,122,123,124,123,122,123,123,124,115,114,108,111,115,114,121,118,120,120,124,125,128,127,120,122,127,127,114,126,122,123,123,120
122,119,121,117,124,124,122,122,115,121,117,117,120,121,122,120,125,117,126,125,122,124,120,119,121,123,117,117,119,120,118,118,121,124,123,124,122,119,120,119,118,116,123,121,122,122,121,121,116,121,124,124,121,121,122,120,123,127,118,121,120,116,119,123,121,122,121,119,120,119,118,120,117,120,121,125,125,123,124,119,120,122,126,123,121,122,123,121,125,125,121,121,121,121,122,121,119,119,100,106,119,122,123,118,119,119,128,123,120,117,117,121,121,121,123,121,122,121,122,120,122,124,123,124,126,128,122,121
121,119,113,117,120,123,124,120,118,123,124,122,121,120,124,120,118,121,121,123,121,119,119,118,122,121,120,123,121,120,122,122,120,118,123,117,120,120,121,119,120,121,122,129,123,120,121,119,121,122,121,123,121,124,123,120,125,125,109,111,117,115,119,121,118,122,130,127,124,125,119,117,119,117,117,121,121,122,124,119,122,121,123,126,120,114,121,122,122,123,112,117,121,125,120,122,123,119,127,123,122,120,122,121,117,119,120,122,121,121,121,119,121,121,120,122,121,121,121,121,118,122,120,122,119,118,124,120
122,117,126,122,122,130,125,120,118,120,116,120,122,112,107,119,121,124,121,121,120,124,126,121,121,125,124,124,124,122,123,121,113,115,127,123,120,121,125,120,120,118,126,125,122,119,113,119,123,122,116,121,119,119,123,119,122,125,117,121,121,121,122,121,116,121,124,125,121,120,122,120,121,118,123,121,122,124,122,121,123,127,119,118,118,120,122,121,126,122,123,126,123,125,124,121,119,116,117,119,122,121,117,119,117,122,126,124,122,128,126,119,120,124,127,126,121,112,116,119,123,123,109,114,122,127,125,123
118,121,126,126,120,110,120,118,117,117,127,128,122,125,121,118,122,118,108,113,118,117,120,122,119,124,125,124,121,121,122,122,119,121,126,124,124,121,121,119,122,120,119,120,121,125,122,120,120,119,121,122,120,119,125,121,122,123,122,126,122,119,113,118,120,121,100,103,117,123,128,124,116,115,119,124,119,114,115,118,120,125,124,126,123,123,126,120,121,125,122,121,121,120,119,122,121,119,121,124,122,123,123,121,120,116,115,117,121,120,121,119,120,123,128,127,123,121,122,123,122,122,108,115,119,120,120,119
122,121,126,124,121,121,122,119,119,116,122,125,120,121,122,117,119,126,118,120,122,123,121,122,122,126,120,122,123,123,121,119,120,122,125,123,121,123,124,120,121,118,119,120,120,120,122,118,121,118,111,118,120,124,126,123,120,126,129,124,124,125,116,123,119,121,123,124,122,119,122,118,120,120,132,130,121,118,123,119,123,121,123,117,119,126,124,120,118,120,114,120,121,113,122,120,118,121,134,130,126,128,122,119,120,123,123,124,121,124,123,119,120,123,128,127,121,124,120,120,120,121,124,122,119,110,119,118
121,121,123,130,128,127,122,121,119,119,117,119,121,123,123,120,121,125,127,124,121,123,128,121,124,124,121,121,121,115,112,123,119,117,117,119,120,123,121,118,116,117,122,121,124,128,130,119,123,126,124,124,122,117,118,124,123,125,117,119,121,128,121,120,121,120,114,119,123,121,122,119,120,120,123,121,120,121,122,118,121,120,121,124,121,115,123,123,123,126,120,122,119,120,115,120,120,121,115,121,125,124,123,121,121,116,129,123,122,122,122,118,118,119,118,122,121,119,119,118,120,124,130,126,120,122,122,122
119,122,119,123,122,120,121,120,120,120,129,124,121,123,123,121,122,123,121,125,123,119,118,122,121,127,121,121,121,119,115,117,118,122,128,125,120,123,126,120,123,118,118,120,124,122,118,121,121,122,123,122,121,120,120,119,122,124,120,122,120,129,125,121,118,117,117,117,119,119,111,118,118,120,122,123,122,122,129,121,122,123,127,123,119,118,119,122,120,127,119,122,122,121,118,115,122,121,123,121,121,132,131,122,120,118,127,124,123,120,117,119,123,125,119,123,123,124,122,121,122,119,120,121,120,124,123,123
119,121,121,120,120,114,117,118,118,117,120,123,121,118,120,116,124,120,124,123,121,125,123,122,120,125,119,121,121,122,121,120,120,123,122,122,122,125,121,123,118,121,119,119,123,125,120,119,124,121,121,120,121,121,122,122,124,124,122,124,120,118,120,119,119,120,123,123,119,119,122,120,122,118,120,120,128,128,126,121,117,122,122,123,119,115,114,119,122,122,118,119,121,124,123,123,123,122,116,120,121,121,123,121,117,120,123,121,120,116,124,123,124,122,124,125,126,133,122,122,122,125,119,123,119,119,116,119
120,126,112,114,120,119,120,120,118,117,117,120,121,125,124,119,122,121,127,126,122,120,119,121,124,119,95,106,117,122,123,122,119,120,130,127,121,121,124,120,121,119,130,129,122,119,119,119,123,125,116,118,123,123,122,121,121,121,124,125,119,116,119,121,121,123,135,127,121,116,123,119,118,119,108,119,122,125,114,119,124,122,126,123,125,121,120,121,122,127,124,124,120,121,124,122,120,123,122,123,123,122,123,121,117,118,121,121,120,117,123,118,118,123,121,123,121,122,116,120,124,127,124,124,120,122,124,120
122,120,124,124,122,114,122,121,117,119,108,115,122,122,116,120,120,123,126,123,119,121,124,122,121,125,127,128,122,123,123,121,120,119,117,120,121,120,124,122,120,122,123,124,124,127,123,120,122,124,123,123,120,115,119,121,121,125,123,125,122,123,120,120,117,123,121,124,123,122,127,121,120,113,130,125,121,130,125,119,122,124,117,119,122,121,109,121,123,124,124,122,122,124,127,121,118,119,121,123,119,121,124,120,119,117,121,125,122,122,123,121,119,121,123,121,122,122,120,120,122,124,121,123,121,122,121,119
120,118,122,121,120,123,126,121,125,120,119,123,126,125,113,119,118,119,119,122,121,122,122,120,123,123,120,121,119,115,124,121,120,120,123,120,122,125,122,121,120,121,128,125,121,122,122,120,121,120,116,121,120,119,122,121,122,124,126,127,120,114,117,120,118,119,110,111,118,122,120,116,119,119,123,126,123,122,124,120,120,120,124,124,123,121,122,121,123,128,125,125,122,118,116,119,120,120,118,121,121,122,123,119,122,122,125,125,123,121,123,119,119,120,122,125,123,122,126,120,122,124,117,117,121,121,112,122
118,116,123,127,121,118,122,118,120,119,121,122,120,123,124,119,126,121,114,121,120,119,123,124,122,126,123,123,122,121,117,120,120,120,121,122,123,124,122,119,122,122,126,123,122,120,124,120,118,122,115,122,124,120,119,119,122,127,124,122,119,120,121,121,120,120,121,122,120,118,125,120,118,117,117,123,120,118,120,118,120,125,128,122,121,123,124,122,121,124,118,121,120,113,118,122,121,123,122,122,120,120,119,119,122,119,120,122,121,122,124,121,119,125,123,115,120,125,122,120,122,124,118,125,122,121,124,121
120,119,119,120,122,115,118,121,118,120,125,127,122,120,119,120,121,120,123,122,121,120,125,119,123,121,121,122,122,122,118,119,119,122,117,119,122,118,120,120,120,119,120,122,122,123,124,121,120,122,123,120,119,115,123,121,122,125,126,125,123,128,120,122,119,119,116,119,120,122,122,119,119,120,124,125,124,119,121,120,119,122,127,125,121,121,121,118,122,126,122,122,121,127,126,121,119,119,124,124,121,115,117,120,114,119,117,121,123,123,124,121,120,122,128,126,122,120,121,119,123,125,110,115,118,123,121,121
121,121,123,121,124,123,121,120,119,120,122,120,118,118,121,119,122,119,121,123,120,120,121,120,120,123,113,123,122,126,120,123,120,122,124,122,122,116,121,119,121,122,123,123,122,123,121,119,121,118,120,123,118,111,120,119,123,130,126,125,128,125,122,120,121,125,118,121,121,121,122,122,116,118,121,122,125,137,126,119,124,117,116,119,118,103,113,119,121,125,123,124,124,139,126,121,116,121,129,125,120,117,121,120,120,119,110,116,122,130,118,118,123,119,122,121,120,119,121,120,123,126,125,125,123,119,120,120
117,121,123,123,122,120,123,121,119,121,121,120,120,121,121,119,120,122,120,123,121,115,122,120,122,123,128,127,125,129,122,122,121,118,111,113,121,122,119,119,117,122,127,124,120,124,124,119,119,120,124,121,123,114,117,121,122,128,122,123,122,119,119,120,119,123,122,122,121,120,122,120,119,116,120,119,119,123,118,118,122,120,120,122,123,120,125,121,122,125,123,126,122,113,122,121,121,118,122,122,124,133,115,120,119,117,116,116,120,119,120,119,121,121,118,120,120,122,123,123,120,124,121,124,122,121,126,121
120,120,122,120,119,116,114,116,118,115,121,122,120,120,120,118,118,123,128,126,122,124,122,122,123,122,116,119,119,118,122,119,120,123,131,125,122,122,120,119,118,119,119,122,120,120,121,122,120,122,106,113,120,119,119,119,122,125,128,124,120,120,122,120,119,125,126,125,123,123,121,119,117,116,120,120,121,122,122,119,120,121,119,124,121,121,127,123,123,125,124,126,123,113,114,121,120,120,123,120,120,118,117,120,120,120,123,121,121,126,129,120,118,121,120,122,122,123,115,119,123,122,119,120,121,126,125,120
121,121,122,124,122,121,121,119,122,119,120,124,122,129,130,122,121,123,118,123,124,111,108,122,120,121,109,108,117,120,125,120,121,122,131,128,127,136,126,120,119,117,122,123,121,120,124,122,117,121,124,123,121,121,123,121,123,126,124,122,122,123,121,122,123,120,120,123,121,122,125,119,120,118,121,122,122,120,118,117,121,119,107,117,119,124,122,120,119,124,123,124,122,119,117,120,119,123,119,119,120,121,123,120,118,117,122,123,122,121,121,118,121,123,121,123,122,126,123,121,125,124,121,122,121,119,118,122
122,121,121,120,119,125,124,121,121,120,119,122,122,123,123,118,118,117,111,113,116,114,119,120,124,122,124,125,121,121,120,120,120,121,122,123,122,119,122,120,118,121,121,120,120,123,120,119,123,122,121,121,119,117,121,121,122,124,120,121,121,121,121,121,117,121,122,120,123,122,123,121,119,118,118,120,120,121,120,119,122,121,121,123,124,120,120,120,124,124,120,123,121,127,123,121,117,121,121,121,123,121,121,121,118,118,119,122,122,120,118,118,120,121,121,122,122,127,126,118,124,126,123,123,123,121,121,121
120,121,120,121,120,119,116,116,118,118,122,123,121,121,122,119,121,122,120,123,122,121,120,121,124,125,121,118,119,121,122,123,120,123,119,122,123,121,121,120,117,117,122,121,120,119,119,119,120,122,121,122,122,123,123,122,123,125,121,122,121,119,120,120,120,123,121,120,121,121,122,119,118,116,120,123,122,121,122,119,121,122,119,122,122,122,115,117,122,123,121,121,120,120,133,123,120,121,122,122,120,123,121,125,118,115,120,121,123,121,123,116,124,126,121,122,123,121,119,120,123,123,120,122,121,124,124,122
119,120,121,121,122,121,122,115,120,120,120,123,121,121,121,126,121,126,122,120,122,121,121,119,124,127,122,123,122,122,122,121,117,119,121,123,123,122,122,120,118,120,121,119,119,120,121,120,119,122,120,123,123,121,122,121,122,122,120,122,122,121,121,123,117,120,121,122,120,120,121,116,117,120,122,121,121,122,122,118,122,123,122,124,121,120,121,121,123,124,122,122,122,121,120,122,118,122,121,119,121,121,122,120,118,119,120,123,121,121,117,117,121,117,119,121,120,121,123,122,123,132,119,120,119,119,119,117
119,116,123,122,121,120,122,124,119,119,123,121,122,121,120,118,124,130,123,123,120,120,120,125,124,124,118,121,121,122,121,120,120,113,117,119,121,123,120,118,117,121,124,124,120,119,119,117,122,121,122,122,121,122,125,122,121,120,119,120,121,122,120,123,120,128,121,122,122,122,123,120,119,117,122,123,123,122,123,119,120,119,119,121,119,119,120,122,120,122,121,121,121,122,121,121,119,118,122,122,121,121,121,120,120,121,121,122,120,120,122,119,120,119,121,123,121,120,120,119,123,126,121,122,121,122,122,121
122,117,121,121,120,120,121,122,119,118,121,121,122,121,121,120,122,123,121,122,120,122,121,120,123,122,121,124,121,120,121,120,117,122,119,121,121,121,121,122,120,119,121,122,120,121,122,120,120,122,122,121,121,120,121,120,122,121,120,124,121,122,120,120,119,124,123,123,121,121,122,122,122,121,121,120,122,122,122,120,124,120,120,123,121,121,121,120,124,126,122,120,120,120,121,122,120,118,119,122,121,121,121,119,121,122,120,123,123,122,124,123,120,120,121,122,119,119,120,119,121,122,121,121,121,121,121,120
119,119,122,122,121,122,122,119,120,120,120,123,120,120,121,119,119,124,122,124,122,120,122,121,122,125,120,122,120,122,121,119,119,125,121,118,120,121,120,119,120,119,121,125,122,120,120,120,122,117,121,124,124,126,123,118,124,126,121,122,122,120,121,123,120,117,120,123,121,120,119,119,117,119,120,119,120,122,127,116,122,116,116,120,120,120,121,124,123,130,122,122,118,117,118,116,120,112,119,121,121,119,123,120,121,136,125,121,124,124,123,120,121,125,124,122,123,122,122,122,123,119,117,121,121,121,120,120
119,120,120,121,121,121,122,120,121,122,120,121,120,119,120,122,119,118,118,122,123,128,136,121,123,122,122,123,120,121,119,120,122,122,122,122,122,121,122,123,117,126,122,121,121,120,122,121,121,116,116,120,120,121,121,121,123,132,126,123,121,122,119,121,122,120,120,124,121,122,122,120,120,123,121,121,120,121,122,119,118,118,121,120,121,122,121,119,123,122,118,121,121,121,120,123,119,121,120,122,121,121,121,121,120,117,122,122,122,121,120,120,120,119,120,122,121,120,120,120,120,128,122,122,121,121,122,121
121,122,122,122,121,121,122,120,122,119,121,123,122,122,122,120,119,118,118,119,119,120,121,121,121,120,123,124,122,121,120,120,121,116,117,120,122,120,122,121,117,119,121,122,120,120,118,118,119,116,122,122,121,121,120,119,124,123,119,122,120,121,121,122,122,121,120,122,121,120,121,119,119,120,120,122,121,120,120,119,123,121,123,121,122,121,121,122,120,121,123,121,121,121,120,121,119,124,119,122,121,121,122,121,120,123,122,122,121,121,122,120,117,120,121,123,120,120,121,121,123,123,121,122,121,121,120,122
120,121,120,121,121,120,122,119,118,119,120,121,122,122,122,119,119,121,120,123,121,121,122,119,123,121,123,122,121,121,121,120,117,119,121,121,120,122,122,122,120,121,121,122,122,121,122,120,123,121,121,120,120,120,121,120,123,123,122,122,122,121,121,120,121,122,122,123,120,120,121,120,121,119,121,122,122,121,122,120,118,121,121,122,121,121,121,119,124,124,122,122,120,121,121,121,118,122,122,120,120,122,121,121,122,120,121,122,122,121,121,119,120,120,121,124,122,122,121,119,122,126,119,123,121,120,121,120
123,120,119,120,121,121,121,119,118,120,122,122,122,120,121,120,123,122,121,119,118,120,121,120,124,122,121,124,123,122,121,121,119,122,122,123,121,121,121,118,117,119,120,118,120,121,121,119,118,117,120,123,122,122,121,119,125,122,121,123,122,122,120,119,117,118,119,122,122,121,122,121,116,120,122,121,121,121,121,118,121,124,121,122,123,121,121,120,123,124,121,120,121,121,120,120,119,121,119,123,120,121,121,120,119,119,121,123,123,122,121,120,122,123,121,120,119,119,119,119,123,123,120,123,122,120,120,121
120,121,121,122,120,122,121,120,117,117,121,122,123,122,122,118,121,120,121,122,121,122,121,121,122,124,121,124,121,121,121,120,121,118,121,121,122,122,122,118,118,120,120,121,121,121,121,119,120,125,121,120,121,120,120,121,121,126,121,123,121,122,122,121,121,123,121,121,120,120,120,119,117,117,120,121,121,121,121,119,119,119,121,122,121,120,120,120,125,123,120,125,121,121,120,121,121,123,122,121,121,121,120,121,118,116,121,121,121,121,122,121,120,121,119,121,121,121,121,120,123,123,121,122,122,121,121,122
121,122,122,122,120,121,122,118,119,121,120,121,121,121,122,119,120,118,121,122,121,120,120,119,122,126,122,122,121,120,121,122,121,124,121,124,120,121,122,120,118,118,123,123,123,121,121,119,121,121,121,121,120,120,119,121,123,122,120,121,121,120,120,121,120,119,121,122,123,120,121,121,121,123,122,122,122,121,121,120,118,118,121,123,121,121,121,119,122,121,123,123,122,120,121,122,123,120,122,121,119,120,121,120,116,121,119,120,121,122,122,119,120,122,121,123,121,121,121,121,125,123,123,123,122,120,120,121
121,123,120,121,120,121,122,120,119,121,122,121,122,121,122,120,122,118,122,122,121,120,121,119,124,125,121,123,121,122,121,123,117,118,121,122,122,120,120,121,120,121,120,122,121,121,121,119,121,118,120,121,121,121,121,120,121,122,120,121,121,122,121,121,119,120,122,121,121,122,121,119,119,120,121,124,122,121,121,118,120,123,122,125,122,120,121,120,122,122,121,117,118,120,121,121,121,122,120,123,124,120,120,119,120,118,120,121,121,121,122,119,120,122,123,122,121,121,121,122,123,122,120,121,121,121,121,121
121,123,121,123,122,122,122,119,119,118,121,121,121,120,122,119,119,122,121,120,121,121,121,120,119,124,121,122,122,121,120,121,119,122,121,122,121,120,121,119,120,119,120,118,120,121,122,119,120,121,121,122,120,121,121,121,122,122,123,122,122,121,120,121,121,120,120,122,121,121,121,121,121,119,121,122,121,120,122,121,122,119,120,121,122,121,121,120,124,128,121,120,121,121,121,122,119,119,121,119,117,120,121,120,117,117,121,124,123,121,122,117,122,121,119,122,122,121,122,122,122,125,122,124,121,122,121,122
119,122,122,120,122,121,122,118,119,120,120,122,121,121,123,120,121,118,121,123,121,120,121,119,123,122,121,122,120,121,121,122,121,123,120,120,121,121,120,119,117,120,121,120,120,121,122,121,121,123,121,122,121,121,121,120,125,124,121,123,122,121,119,122,117,120,122,123,121,121,121,119,118,120,122,121,121,120,121,118,121,118,121,123,122,122,122,120,124,122,119,119,119,121,121,121,118,119,120,123,122,120,122,119,118,120,122,125,122,121,121,121,121,122,120,120,119,121,122,120,125,124,122,121,120,120,120,120
121,122,122,124,122,122,123,122,121,119,120,122,122,121,121,120,119,119,121,122,121,121,120,120,123,121,122,123,121,121,120,121,118,120,121,122,121,120,121,119,115,122,122,120,121,122,122,120,121,122,121,123,121,121,121,117,123,123,121,120,120,121,121,122,121,121,121,122,121,122,122,120,120,122,121,120,122,121,120,121,120,121,123,124,122,122,120,121,124,123,121,122,122,121,121,121,119,121,120,122,121,121,121,120,119,119,122,122,122,121,122,119,124,122,119,123,121,121,120,119,122,124,122,122,122,121,120,120
119,122,120,123,121,121,122,121,117,120,119,117,120,121,122,118,118,124,120,123,121,120,121,119,123,123,121,123,122,122,121,123,121,123,122,123,121,122,122,119,119,118,121,121,122,121,121,120,118,120,121,123,120,121,122,120,125,121,120,122,121,121,120,119,121,119,121,120,120,121,122,122,117,120,121,123,122,120,121,118,119,121,120,122,121,121,121,120,122,125,122,123,121,121,121,122,119,120,120,123,122,122,122,120,118,119,119,120,121,121,122,119,120,126,121,121,122,121,122,121,125,120,120,122,121,121,119,120
122,120,121,120,121,122,121,119,121,120,120,123,121,120,121,117,119,120,120,122,122,121,121,122,120,125,120,122,122,122,121,119,120,121,123,123,119,120,122,121,119,117,119,119,120,122,121,120,119,122,122,125,122,121,121,122,124,125,123,122,121,121,122,123,121,122,120,123,122,121,121,120,119,119,121,122,120,122,122,119,120,120,119,121,121,121,122,121,122,119,119,122,121,122,122,121,121,120,123,123,120,121,122,121,119,118,119,122,122,121,122,119,119,121,121,122,122,121,122,120,121,124,121,123,122,121,120,121
119,125,123,122,122,121,122,122,119,119,120,121,121,122,122,119,118,119,121,121,121,121,121,120,123,124,121,121,120,120,121,121,122,122,121,123,122,120,120,120,119,121,120,119,118,120,121,120,120,119,122,122,122,120,121,121,124,122,121,124,122,121,121,121,120,122,120,123,122,121,121,121,119,117,119,119,119,121,122,119,121,121,121,122,122,121,121,118,123,125,121,121,121,120,121,120,121,123,121,122,122,122,121,119,117,115,122,120,120,120,121,120,122,121,121,122,121,121,121,121,120,126,122,121,121,120,120,120
123,124,119,123,121,121,121,120,119,119,121,123,122,121,122,119,119,121,121,121,121,121,121,122,125,121,122,125,122,120,120,119,120,122,120,118,119,120,121,120,120,122,120,122,121,121,122,120,120,120,121,123,122,121,120,120,124,124,121,123,121,121,121,121,121,125,120,120,121,121,122,121,119,117,121,122,122,121,122,120,121,120,121,122,120,121,120,121,123,122,121,121,121,120,120,120,121,121,123,123,122,121,121,121,119,118,120,124,123,121,121,120,120,125,120,122,120,121,122,118,123,123,121,122,121,121,121,121
122,123,120,122,121,121,121,121,118,120,122,122,121,121,122,120,121,120,122,121,121,122,122,120,124,122,120,122,121,121,121,121,120,122,121,122,121,121,121,120,117,121,124,121,121,121,122,121,119,122,123,122,122,121,121,119,124,123,121,122,121,121,120,120,119,118,121,121,121,122,122,120,118,118,121,122,121,121,121,120,120,119,121,121,122,121,122,119,125,125,119,122,121,121,120,121,121,121,121,121,123,122,122,121,117,118,121,124,121,121,122,120,119,119,122,121,119,121,122,120,125,124,121,120,119,121,121,120
119,122,121,124,123,121,121,120,115,120,120,123,122,122,121,120,120,119,120,122,122,121,121,120,122,127,122,123,121,122,120,119,120,122,121,123,121,122,121,120,117,120,120,122,122,122,121,120,121,121,120,122,122,121,121,119,122,123,122,123,121,122,122,122,118,122,121,122,121,121,121,119,119,120,121,122,120,121,120,120,120,123,120,122,121,121,122,120,118,121,122,124,122,121,120,120,119,122,121,122,122,121,120,121,118,116,122,122,121,121,121,118,121,120,119,121,123,122,121,120,125,121,122,123,121,121,120,120
119,123,119,120,121,121,122,120,119,118,121,123,121,120,121,120,121,123,122,123,121,120,120,121,124,124,121,122,121,120,121,120,119,123,122,121,121,121,123,119,118,123,121,122,122,121,122,119,123,119,121,121,120,120,121,121,119,124,120,121,122,120,120,121,120,121,120,122,122,122,121,120,121,118,121,122,122,121,122,119,119,122,121,123,122,121,120,120,123,125,121,120,120,120,120,122,117,123,122,121,121,120,121,119,118,121,121,123,122,121,122,120,121,119,120,123,122,122,120,119,125,122,122,122,121,120,120,122
122,120,120,121,121,121,121,119,116,122,122,122,121,122,123,120,121,119,120,122,122,121,121,121,121,126,120,123,121,121,121,121,121,122,121,122,122,121,121,119,118,117,122,119,121,121,122,120,122,119,120,119,119,120,121,120,120,124,121,123,122,121,120,122,122,125,122,123,122,121,121,120,119,121,120,122,121,121,121,117,121,121,121,122,122,120,121,121,125,125,121,122,120,121,122,121,122,120,122,119,120,121,121,119,116,122,120,123,122,121,123,120,120,122,121,122,122,122,121,121,125,121,120,121,121,120,120,121
120,122,121,122,121,121,122,122,119,121,119,120,121,121,122,121,118,122,121,123,121,121,121,120,125,122,121,122,120,121,122,119,120,121,121,122,121,121,121,121,116,119,121,119,121,121,122,120,120,121,121,122,121,121,121,120,123,122,121,125,122,121,121,121,120,123,121,123,121,121,121,120,120,119,121,117,118,120,121,119,121,121,121,121,122,120,120,119,125,124,121,122,122,120,120,120,122,124,121,122,122,121,122,120,119,119,122,122,120,120,121,120,119,117,120,120,121,121,120,119,124,124,122,122,121,121,121,122
119,122,122,122,121,120,121,120,119,119,121,123,122,121,122,119,120,119,120,123,122,121,121,120,123,126,122,120,121,121,122,122,121,124,120,122,121,121,121,121,117,121,121,119,121,121,122,123,121,117,121,122,120,120,121,118,122,124,120,123,122,121,121,120,120,125,121,123,121,121,120,120,120,118,119,122,122,121,123,120,120,123,121,124,122,121,121,120,123,124,122,121,121,120,119,121,121,123,120,122,122,120,121,119,118,120,120,123,122,121,121,119,121,119,120,119,117,120,121,120,123,124,120,123,123,121,121,121
120,122,120,122,122,122,121,121,119,122,121,123,121,121,120,119,118,116,121,122,122,122,121,120,125,123,121,122,122,121,119,119,119,124,123,123,121,121,121,119,121,121,121,122,121,122,120,118,119,118,120,120,120,121,122,119,122,123,120,122,121,121,121,123,120,122,122,122,121,122,121,121,117,122,121,122,121,120,121,119,118,120,121,123,122,121,122,118,124,126,121,124,121,121,120,121,122,123,123,121,122,120,121,121,118,120,121,122,121,121,122,121,120,119,121,123,122,121,121,120,123,122,120,119,119,121,121,121
119,119,121,123,122,121,122,120,117,121,121,123,122,121,122,119,120,121,121,121,121,120,121,119,121,123,120,124,122,121,121,120,122,121,122,122,120,120,120,121,118,122,120,121,121,121,122,120,119,121,120,120,122,121,121,119,122,124,121,123,121,122,121,120,118,123,122,122,120,120,121,121,116,119,121,120,122,122,121,119,125,119,121,123,120,120,121,120,122,123,122,123,120,120,120,120,119,122,122,123,122,121,122,120,118,123,120,119,120,120,121,120,118,119,123,122,121,121,122,121,124,121,121,122,123,122,121,120
122,120,121,122,121,121,122,120,119,116,121,123,121,121,122,119,120,122,121,123,123,122,121,119,122,126,120,124,121,121,121,121,121,121,120,118,120,121,122,121,120,119,121,123,122,121,121,118,118,122,122,122,120,120,121,120,122,121,122,123,122,121,120,120,122,119,121,122,120,120,121,119,118,120,120,120,121,121,121,121,121,121,121,122,122,121,122,121,124,125,122,121,120,121,121,121,120,123,122,124,122,120,120,121,119,118,119,121,121,121,120,119,118,118,120,121,120,120,121,120,124,122,122,123,123,122,121,122
121,121,121,119,120,121,121,120,119,118,121,122,120,121,122,119,120,120,122,123,122,121,121,121,125,123,121,121,121,120,120,123,121,120,122,124,121,121,121,120,118,119,120,122,121,121,121,118,118,118,122,120,121,121,121,121,125,124,121,122,122,120,120,120,122,121,120,122,121,121,121,120,118,121,120,121,121,121,122,120,118,119,121,121,121,122,121,118,121,121,121,123,122,121,120,122,120,122,120,123,121,121,122,120,121,121,121,119,119,121,121,121,119,121,119,121,121,121,121,119,123,124,121,123,121,121,121,122
118,121,121,120,121,121,122,119,119,118,119,124,122,121,122,120,121,120,122,120,121,121,120,121,122,123,119,123,122,120,120,121,121,124,120,122,120,121,122,121,118,117,121,122,121,120,122,119,121,120,120,121,122,121,120,120,122,122,121,122,121,121,121,123,123,121,119,122,121,120,121,119,118,124,122,122,120,121,122,119,123,122,121,122,122,121,122,118,122,122,120,121,121,121,121,122,122,121,122,124,122,122,121,120,117,122,123,120,119,120,122,120,120,118,120,119,120,121,121,119,122,125,120,123,122,121,121,120
122,122,121,123,122,122,122,121,118,122,122,121,122,122,122,120,120,118,121,122,121,121,120,119,122,125,120,121,121,122,121,121,122,123,122,120,121,120,121,121,119,122,121,123,121,120,121,120,119,119,120,120,121,121,123,120,122,122,120,123,121,121,122,121,123,121,122,124,121,121,120,120,120,117,121,119,120,121,122,120,121,121,123,122,122,122,122,120,120,121,122,122,122,121,120,120,120,121,121,125,121,121,122,119,120,120,118,113,118,120,122,119,118,118,120,125,122,122,121,118,123,125,122,121,122,121,120,121
122,124,123,122,122,121,122,123,119,118,119,124,122,121,121,120,119,115,122,122,121,121,122,119,124,123,122,123,122,120,120,119,120,122,121,121,121,121,120,119,118,121,121,123,121,122,121,120,119,120,120,122,122,121,121,120,125,123,120,121,121,121,121,120,123,120,121,121,122,121,120,120,117,118,122,122,120,121,122,120,117,121,120,123,122,121,121,120,121,124,121,124,122,120,121,121,122,122,121,121,121,121,121,121,117,120,121,122,121,122,122,120,118,120,122,121,123,121,121,120,125,126,123,119,120,121,122,122
122,123,120,122,121,121,121,122,118,120,120,124,122,122,122,121,119,118,120,121,122,121,121,119,123,123,122,122,121,121,120,120,120,120,121,121,120,120,121,120,119,118,120,121,121,121,123,119,119,121,120,122,122,122,121,120,123,124,122,122,121,121,120,120,122,122,121,121,121,121,121,122,119,119,121,121,121,120,121,119,118,122,121,123,121,120,121,120,122,124,120,121,121,121,121,121,121,121,122,124,122,122,121,119,118,119,120,122,121,121,121,121,119,120,121,118,120,121,121,119,125,125,121,122,121,121,121,122
119,123,121,122,122,121,122,122,121,121,123,121,121,121,121,118,120,122,117,120,121,122,122,121,122,122,121,122,120,121,122,122,120,119,121,122,121,121,121,118,118,119,120,120,121,121,123,120,119,120,121,123,122,121,120,121,124,123,121,122,122,121,120,119,121,121,121,122,122,121,120,120,117,117,120,122,121,122,123,120,121,119,120,122,119,120,121,121,123,126,120,120,120,121,121,120,121,124,122,122,121,120,121,119,118,121,118,121,122,121,122,121,122,119,121,123,120,120,121,121,122,124,121,123,123,122,121,120
121,122,120,119,118,121,121,121,121,117,122,122,122,121,122,120,116,120,122,122,123,121,121,121,123,124,122,122,121,121,121,120,123,123,121,123,121,121,121,120,119,118,119,121,121,121,121,120,118,121,121,123,122,121,123,121,125,123,120,120,121,121,121,122,121,123,120,122,121,121,121,120,119,120,120,122,121,121,121,119,119,119,119,120,121,121,122,120,123,123,121,122,122,121,121,119,122,120,122,121,120,121,120,121,118,120,119,120,121,121,122,119,118,119,120,122,119,120,121,119,122,123,122,124,122,121,121,122
120,121,121,117,118,120,121,121,119,119,120,123,122,121,121,120,118,119,120,122,122,121,122,120,123,124,120,123,121,121,121,121,120,122,122,122,120,121,121,119,120,118,121,121,120,120,121,119,117,122,120,124,121,120,122,120,125,126,121,122,121,121,121,122,119,123,121,121,122,121,121,121,116,115,121,122,122,122,123,118,118,120,120,122,122,121,121,120,124,123,122,121,121,121,120,120,122,122,121,121,121,121,121,119,116,122,119,122,122,122,122,119,120,118,120,120,120,121,122,122,121,121,121,123,122,122,120,120
123,121,122,123,121,121,122,122,117,118,120,123,120,120,121,120,119,119,121,119,121,121,121,119,124,122,120,122,121,121,121,122,119,124,121,122,121,122,121,119,120,121,121,120,121,120,122,120,118,121,121,124,123,122,122,121,123,121,120,121,119,120,120,121,121,118,120,121,120,121,121,120,121,119,121,124,121,121,122,120,120,120,122,121,120,120,121,119,122,124,121,122,122,121,120,122,121,124,122,122,120,121,121,120,122,123,121,120,120,120,121,121,118,117,120,123,123,122,121,119,122,125,120,123,121,120,120,122
120,124,121,122,121,121,121,122,118,120,121,123,122,120,122,118,120,119,120,122,122,121,121,118,121,123,121,122,121,121,121,120,119,121,121,121,121,121,121,122,121,119,121,122,122,122,121,120,120,119,121,122,123,122,121,120,120,120,121,121,120,121,120,121,120,122,120,121,120,120,120,120,119,121,121,121,122,121,121,120,120,119,121,121,122,121,122,120,122,121,121,124,121,121,120,121,120,124,120,121,121,121,120,121,117,122,122,123,122,120,121,119,120,119,120,122,121,122,121,119,125,123,122,120,119,121,121,121
121,123,121,121,122,120,121,120,118,122,122,122,121,121,121,120,117,122,122,123,122,121,122,120,125,122,120,120,121,121,121,122,124,123,121,123,122,121,122,122,119,118,121,119,120,121,121,119,119,122,122,121,122,122,122,121,123,122,121,123,122,121,121,120,120,122,122,120,121,120,121,118,119,119,120,123,122,121,120,118,118,118,120,119,119,121,121,120,124,124,122,123,122,120,121,120,121,121,122,123,120,121,122,120,119,120,123,121,122,121,121,121,120,121,121,121,120,122,120,119,124,123,122,123,122,120,120,121
120,121,121,119,121,121,122,118,120,119,122,123,122,121,121,119,117,121,121,120,121,121,120,120,122,124,122,123,122,121,122,123,122,124,121,121,121,121,121,120,120,120,122,122,122,122,121,118,116,120,121,123,122,122,122,119,124,123,122,123,121,121,121,123,121,123,121,121,122,120,120,121,119,122,121,121,120,121,121,121,118,119,119,117,118,121,122,120,124,122,122,124,121,121,120,121,122,124,121,124,122,121,120,120,118,119,122,119,119,120,121,120,117,119,121,123,122,121,122,120,121,120,119,123,120,120,120,120
119,122,123,124,120,121,122,121,120,122,122,122,122,122,121,118,121,121,120,121,121,122,121,119,119,121,121,122,121,121,120,121,124,122,121,122,121,121,121,122,118,117,120,121,121,121,121,120,118,121,121,122,122,120,121,119,122,126,121,124,120,121,121,121,119,121,121,122,119,121,121,121,122,119,120,122,120,120,121,118,118,118,120,120,121,122,121,120,121,121,119,122,122,122,121,120,121,127,121,124,122,120,120,121,116,122,122,120,120,122,123,121,120,118,119,123,122,121,120,119,121,126,121,121,122,122,121,118
119,118,121,123,121,121,121,121,119,121,121,121,122,121,122,119,117,120,121,122,121,121,121,120,123,124,121,122,122,121,120,122,122,121,122,122,120,121,121,120,118,122,122,121,122,122,123,119,122,116,119,122,121,121,122,122,120,123,122,122,122,121,120,119,121,124,120,123,120,122,121,120,119,122,120,123,121,121,122,120,120,120,120,120,121,121,120,121,124,123,122,124,122,120,119,119,126,122,121,122,120,121,121,120,119,117,121,121,121,120,121,120,118,121,123,123,122,121,121,120,121,120,121,123,122,121,120,121
123,122,120,118,119,121,122,121,118,124,122,124,123,122,121,119,119,119,121,122,121,122,122,119,122,123,120,120,120,121,121,120,121,121,121,122,121,121,120,120,121,122,120,122,121,122,121,120,119,120,119,122,122,121,122,119,121,123,122,122,120,120,121,121,121,122,121,123,121,121,120,120,119,121,121,122,122,121,120,119,119,118,120,123,122,121,123,118,126,123,121,120,118,120,121,120,122,122,121,124,123,122,122,119,119,119,120,122,121,121,121,118,117,123,122,121,121,121,121,120,123,123,121,123,121,121,122,121
121,122,121,122,121,120,121,121,119,121,120,120,121,121,121,119,119,118,121,121,122,120,121,119,121,125,121,123,122,122,122,121,122,123,119,121,120,121,122,120,117,119,122,122,122,122,122,121,118,118,119,121,122,121,121,119,123,122,119,121,120,121,121,122,121,125,121,122,121,121,121,121,119,120,122,121,121,120,121,120,119,119,121,121,121,121,121,120,124,124,121,124,120,121,119,120,123,124,121,122,121,121,121,121,118,121,122,121,120,122,121,119,118,114,122,123,122,121,122,119,124,120,122,122,121,121,121,122
124,126,121,121,121,122,122,120,118,121,121,121,121,122,121,119,116,118,120,122,122,122,121,120,120,122,121,121,122,121,120,121,121,123,120,122,122,121,122,120,119,118,121,121,121,121,120,121,119,123,121,123,120,121,120,118,122,121,121,122,121,121,121,122,119,126,123,119,120,120,121,118,119,120,121,122,122,121,120,119,119,119,120,118,120,121,122,120,122,122,122,125,122,121,121,121,123,123,121,123,121,120,121,120,118,123,122,121,122,121,122,121,119,117,121,122,119,120,121,119,121,125,121,123,122,120,120,121
122,121,122,122,121,121,120,121,118,124,122,122,122,121,122,119,120,117,122,121,121,120,121,119,120,123,121,123,121,121,121,121,118,123,121,121,122,121,121,119,119,121,121,120,121,120,121,119,122,119,121,122,122,121,120,119,122,125,121,123,121,121,120,121,120,121,120,123,121,121,122,120,120,121,122,120,120,121,122,119,116,123,119,121,120,122,122,121,122,121,121,126,122,121,120,120,123,123,121,118,118,120,122,121,118,120,121,123,123,121,121,119,120,119,121,122,121,121,122,120,123,121,122,122,123,121,120,119
123,120,122,122,120,121,122,121,117,119,120,124,123,121,121,121,117,118,121,122,123,122,121,121,121,122,122,122,120,121,121,120,121,125,121,121,121,120,120,122,121,120,120,121,121,121,122,120,117,117,119,120,120,121,122,120,124,120,123,121,121,121,121,122,120,124,121,123,122,121,122,120,118,119,119,121,121,121,122,119,119,123,119,122,121,121,122,120,120,125,122,121,122,122,121,121,123,122,121,121,120,121,121,121,119,118,121,124,122,122,121,119,123,120,120,119,120,121,122,118,120,123,121,124,122,120,121,122
119,120,121,119,120,122,121,119,118,119,121,123,121,121,121,120,120,121,121,121,121,120,121,120,125,123,119,121,121,121,121,120,122,124,120,121,121,121,122,120,119,119,122,121,121,121,121,119,118,120,121,122,121,120,121,119,121,122,120,120,121,121,121,121,122,122,120,121,121,121,121,122,121,121,120,121,122,122,121,120,119,120,122,121,122,120,121,121,121,121,119,121,121,122,122,122,122,126,121,121,121,121,119,119,116,120,121,123,123,122,122,118,119,120,123,122,120,120,121,121,123,122,120,121,119,120,120,120
120,122,119,123,122,121,122,121,119,120,120,122,122,121,121,121,118,120,120,122,122,121,121,120,122,124,122,123,121,122,120,119,123,120,122,123,120,121,120,122,120,119,119,119,121,121,122,119,119,122,121,121,121,121,121,120,121,122,122,124,121,121,120,120,121,122,121,123,121,121,121,121,121,122,123,123,121,121,121,121,118,119,121,122,120,122,121,119,122,121,121,123,122,121,120,120,124,122,121,123,121,120,121,121,117,121,121,123,121,121,122,122,119,120,122,122,123,121,121,122,119,122,121,121,119,121,121,120
122,122,119,119,119,120,121,120,118,125,121,124,121,122,123,121,122,117,122,121,123,121,121,120,122,121,120,121,121,121,121,122,120,121,121,123,121,119,120,120,120,124,120,122,121,121,121,120,120,119,121,121,122,120,122,119,121,124,121,123,122,122,120,120,122,118,121,120,121,122,121,120,119,120,120,122,121,121,122,120,117,120,120,122,121,122,122,118,124,122,121,122,121,121,120,122,119,122,122,123,121,120,120,119,120,118,119,122,121,121,122,119,118,121,123,122,120,121,123,121,120,126,121,123,122,121,121,122
118,119,120,120,121,120,120,120,121,120,121,122,122,122,121,119,122,119,121,123,121,121,121,120,123,122,120,119,118,120,120,119,123,123,121,120,123,121,122,120,118,120,122,122,121,121,121,120,121,118,119,118,121,121,121,120,123,122,120,123,122,121,121,122,120,124,121,124,122,121,121,121,121,121,121,121,122,121,122,120,121,118,119,121,120,121,122,118,119,121,122,123,122,121,121,120,121,122,121,122,121,122,121,121,120,119,120,121,120,121,121,121,120,122,121,123,121,120,121,119,122,124,122,122,122,121,121,121
123,125,120,122,121,121,122,119,119,117,121,123,121,121,122,120,120,120,121,120,122,121,122,120,122,121,121,121,119,121,121,121,122,123,120,120,122,120,121,121,118,122,121,122,122,122,121,120,117,125,120,120,121,121,121,120,124,119,121,122,122,121,120,122,122,121,121,123,121,120,121,120,119,121,119,122,121,120,121,119,117,119,120,123,122,121,121,120,119,121,123,122,120,121,120,120,122,122,121,122,122,121,121,122,118,123,121,122,120,121,122,120,120,120,121,122,122,121,121,121,123,118,121,122,121,121,122,120
121,123,121,121,122,122,121,122,117,120,119,121,121,121,122,120,118,119,120,121,121,121,120,120,121,124,120,122,122,121,121,119,124,122,121,121,120,121,122,122,122,120,121,122,122,121,122,120,118,121,120,122,121,121,122,120,121,119,119,123,122,121,122,120,125,125,121,122,121,121,122,121,119,120,122,122,120,122,122,121,118,121,120,120,122,121,121,121,122,121,120,124,121,121,121,123,121,122,121,120,120,122,121,120,116,123,122,123,122,121,122,120,119,119,121,120,121,121,120,119,120,124,121,122,122,121,121,119
124,121,121,122,121,121,121,121,120,122,121,121,121,121,121,121,116,118,119,121,121,122,121,120,122,119,121,122,121,121,121,121,120,123,121,120,121,121,121,119,120,121,121,121,121,120,121,121,120,121,121,122,121,121,122,120,120,122,120,123,121,121,121,120,122,121,121,123,120,121,121,121,118,121,122,122,121,121,121,121,121,124,121,121,119,121,122,121,120,123,122,122,123,122,120,119,122,123,122,122,120,120,121,121,119,121,121,122,121,121,122,118,118,118,120,124,121,121,122,119,121,122,120,120,121,121,120,121
122,123,122,121,121,121,122,121,116,120,121,122,121,121,122,120,119,119,121,122,121,121,121,118,124,123,121,121,120,121,121,120,122,123,122,121,122,121,121,119,120,122,120,122,121,120,122,119,117,119,120,122,121,121,122,121,124,122,122,123,122,120,120,121,122,122,121,122,122,121,121,119,119,115,120,122,120,121,121,118,118,122,121,123,122,122,122,120,118,125,121,122,120,122,122,120,122,120,120,120,121,122,121,120,120,121,121,122,122,121,121,119,120,121,121,122,122,121,121,119,120,124,119,123,121,121,121,121
120,122,121,121,122,122,121,120,120,120,122,121,121,121,122,120,119,119,119,121,121,121,123,120,121,121,122,121,121,121,121,119,121,125,122,122,120,120,121,121,121,120,121,120,120,121,121,120,119,121,121,121,122,121,120,118,121,121,122,122,121,121,121,121,121,122,120,121,121,121,121,122,123,119,120,121,122,121,122,120,119,117,119,122,120,121,121,119,120,120,120,122,121,122,121,120,119,122,121,126,123,122,122,121,117,120,120,120,120,122,121,120,119,118,121,123,123,121,122,118,125,122,120,120,120,121,122,120
124,125,122,123,121,121,121,122,119,119,122,119,120,121,121,119,119,119,121,124,122,121,121,120,123,122,119,122,121,121,122,120,119,126,121,122,121,121,122,121,119,120,121,122,121,121,122,119,120,120,122,123,121,121,121,119,122,123,121,121,121,121,121,123,125,125,121,122,120,120,120,122,117,120,123,123,121,120,121,119,119,120,122,120,120,120,121,119,122,123,121,121,122,120,120,120,123,122,120,124,121,121,121,120,119,118,121,122,120,122,121,119,120,123,121,121,121,121,122,120,120,123,120,120,120,121,121,120
123,123,120,123,122,121,121,120,120,122,121,120,121,121,121,120,120,120,121,123,122,120,120,121,122,122,120,122,121,121,121,121,122,121,122,121,120,121,121,121,120,121,121,121,121,121,121,120,119,121,122,122,122,122,122,121,121,120,120,122,122,121,122,120,125,122,121,123,120,121,120,119,121,122,121,121,121,120,121,121,118,122,122,122,122,121,123,121,120,121,120,120,119,120,121,120,121,125,122,122,122,121,121,120,119,122,121,123,121,121,121,121,117,118,121,121,121,122,122,118,123,122,121,122,121,120,120,120
120,120,121,121,121,122,122,120,119,122,120,121,121,121,122,120,117,122,122,121,121,121,122,120,124,123,119,121,121,121,121,122,122,123,120,123,122,120,121,119,120,118,121,117,119,121,120,119,119,121,119,123,122,121,122,119,121,123,122,122,122,122,122,120,122,123,119,121,120,121,121,121,119,121,122,122,121,121,121,120,120,118,121,122,121,121,122,121,122,125,123,121,122,121,122,122,122,123,122,121,119,120,121,120,119,119,121,122,122,121,120,121,118,120,120,121,122,121,122,119,121,118,121,123,120,121,121,121
123,124,120,122,121,122,121,120,120,123,120,121,121,121,122,118,119,118,121,123,121,120,121,120,119,120,122,122,121,120,120,120,122,122,121,122,120,121,121,121,117,123,121,120,122,122,121,120,118,118,120,122,122,121,123,120,122,123,122,122,121,121,121,120,120,125,120,122,122,121,120,122,119,120,120,123,122,121,122,120,119,118,120,123,121,122,121,119,121,118,120,121,119,121,120,120,121,121,123,123,123,122,120,119,122,122,122,121,122,120,122,121,119,121,119,123,121,121,122,118,123,121,121,119,120,120,121,120
120,122,119,124,121,121,121,121,118,121,121,120,122,122,122,121,118,117,121,121,120,121,122,120,123,127,122,121,120,120,121,121,123,125,122,122,121,120,119,121,117,122,122,122,122,121,122,122,120,119,120,121,120,121,122,119,123,121,121,121,121,121,121,121,123,119,120,123,121,121,122,120,121,120,121,121,121,122,122,119,118,120,120,122,121,120,120,118,119,123,119,122,121,121,120,122,125,121,120,120,121,122,122,121,117,119,122,122,121,120,121,118,120,116,120,122,122,122,121,119,123,124,121,123,121,121,121,121
121,124,121,119,118,121,122,122,121,122,120,120,122,121,122,120,119,119,121,123,121,122,122,122,121,122,121,121,121,121,121,121,120,122,121,123,122,121,120,120,117,121,121,121,121,122,121,120,118,114,123,122,121,122,121,120,122,124,119,121,122,121,121,118,124,126,121,123,121,120,120,122,119,119,120,123,120,120,120,121,120,123,121,121,120,120,121,121,123,120,122,121,122,121,121,120,121,121,120,120,120,121,119,120,118,122,119,121,122,121,121,121,118,122,122,121,122,120,122,117,123,127,122,119,120,121,122,122
120,117,120,123,123,122,122,123,120,121,115,121,120,121,122,119,117,117,119,120,121,121,122,119,121,117,122,124,122,122,121,121,122,130,127,123,122,120,121,121,119,117,118,118,119,122,122,119,120,123,123,123,121,120,120,121,122,140,125,123,121,121,123,122,121,121,119,122,121,121,121,122,119,111,117,119,122,114,113,120,121,122,122,122,122,133,131,119,120,124,122,123,122,117,117,118,119,120,123,123,122,124,123,121,118,123,121,122,121,120,121,121,117,119,118,122,123,121,121,118,121,119,121,122,120,121,120,121
122,120,120,122,122,121,121,121,122,118,121,120,120,121,121,120,120,127,119,122,122,120,122,119,121,114,119,121,121,121,121,119,121,125,123,122,122,121,123,121,116,119,120,120,121,121,122,120,119,110,118,122,120,120,121,119,122,133,120,123,121,119,120,120,123,122,119,121,121,121,121,122,122,122,122,121,121,121,121,118,115,100,120,121,120,121,122,119,124,131,121,124,121,121,121,121,122,126,120,120,121,120,120,121,116,121,120,121,121,121,121,120,118,118,118,122,121,121,121,119,118,125,123,125,123,121,121,119
122,129,122,122,121,121,122,121,119,119,121,122,122,122,122,121,117,122,120,122,121,120,120,119,122,120,122,124,123,121,121,120,122,121,120,120,118,120,121,120,121,123,121,123,122,122,121,120,118,115,119,121,122,120,120,119,120,122,121,123,121,121,121,119,122,123,124,122,121,122,120,122,121,130,122,122,121,120,121,119,120,112,118,120,120,120,122,119,121,118,120,122,121,121,121,119,123,128,121,121,120,121,120,122,121,129,124,122,122,122,124,122,118,114,120,123,122,120,121,118,122,120,120,120,121,122,121,122
120,128,120,122,120,120,119,121,120,116,122,121,122,120,122,120,118,123,122,121,120,119,118,120,117,122,120,122,122,121,121,118,125,119,116,122,121,120,121,120,120,128,122,118,120,118,118,120,121,115,120,122,119,121,122,119,121,114,117,122,121,120,121,119,121,116,124,123,122,121,121,121,118,129,119,121,121,121,120,119,116,113,123,120,121,121,121,118,124,133,124,124,122,122,124,122,121,124,114,119,122,118,116,120,120,124,123,121,122,122,123,120,116,108,122,121,120,116,115,117,120,113,116,121,122,129,126,120
125,132,123,124,121,118,118,119,121,129,121,122,120,120,120,120,115,112,117,119,121,120,121,116,126,125,116,122,121,121,121,122,125,134,129,121,121,119,118,121,118,120,122,122,122,119,121,121,118,125,118,122,120,119,121,121,121,138,114,119,121,123,122,119,122,128,121,121,121,120,121,121,117,121,118,122,122,121,121,120,121,142,125,119,119,126,124,119,120,156,125,124,122,128,120,120,119,136,117,124,124,123,123,120,114,117,124,121,120,120,120,118,123,119,123,123,122,120,121,121,120,129,122,122,121,122,122,120
122,136,122,121,122,119,120,121,121,108,120,121,121,121,122,118,120,106,132,124,122,122,123,122,117,117,115,120,121,120,120,119,127,132,118,122,121,131,124,121,116,95,119,123,123,122,130,121,118,141,124,121,121,126,119,118,122,127,127,123,122,122,123,120,126,160,118,122,121,119,119,120,121,113,120,123,120,121,124,120,123,111,125,119,120,120,121,115,117,125,118,123,121,120,122,129,124,146,113,120,118,113,116,116,120,121,127,122,121,120,121,121,111,144,117,119,121,120,121,118,124,140,122,121,122,122,120,120
123,144,115,123,121,118,117,117,126,131,136,120,120,116,118,122,116,101,110,118,119,121,120,118,123,129,128,124,122,127,124,121,120,147,110,121,122,116,116,119,118,128,123,120,120,121,125,119,118,114,123,121,120,119,119,119,121,127,111,119,119,118,119,117,127,145,119,124,123,122,121,122,121,130,125,120,121,110,115,121,121,94,124,121,122,130,125,118,124,93,113,120,120,116,117,123,123,133,129,124,122,129,125,120,117,108,119,123,123,121,120,118,118,92,115,120,121,118,121,120,123,131,122,121,121,122,121,123
122,93,118,122,120,111,113,124,115,114,121,121,122,127,124,120,120,116,114,121,121,119,117,112,130,126,127,123,123,120,123,128,122,88,126,123,122,127,124,125,119,117,118,121,121,123,115,109,119,91,110,119,121,123,121,119,116,110,121,123,122,120,120,118,127,142,123,124,120,116,119,120,122,130,117,121,121,119,119,118,105,73,121,122,122,116,117,121,125,146,125,122,118,112,114,117,124,119,125,124,123,122,126,126,128,89,118,122,121,117,117,124,116,112,124,122,121,119,118,117,118,118,120,121,121,119,114,113
126,154,112,120,122,123,120,124,116,135,125,122,121,119,120,119,131,120,113,123,121,119,121,123,121,140,141,121,120,118,118,119,126,116,108,121,122,123,122,121,120,142,120,120,122,126,126,120,114,112,113,119,119,116,116,116,113,123,112,119,121,115,116,120,113,100,116,121,121,121,118,119,124,120,130,123,122,128,133,117,109,76,111,120,120,117,116,119,123,129,123,120,119,118,118,120,124,103,122,125,125,123,125,123,113,108,119,118,119,120,117,118,123,112,118,122,122,120,120,119,116,102,113,122,122,122,120,120
123,147,126,123,118,117,117,118,127,146,118,122,123,124,123,123,120,144,118,120,119,115,118,117,118,126,122,119,118,115,119,125,130,149,118,126,122,118,122,118,109,123,117,120,121,120,123,115,121,118,118,120,120,121,122,121,122,124,129,123,120,120,120,122,123,134,124,123,122,123,122,119,121,133,117,122,122,119,119,118,124,116,131,124,123,132,126,117,112,92,111,119,120,115,113,125,121,166,110,121,119,115,117,124,128,123,129,124,123,126,123,122,110,106,128,125,122,123,124,118,129,130,118,119,118,110,112,125
118,139,121,123,121,122,122,131,118,134,110,123,123,132,130,120,120,116,133,123,121,118,114,120,122,120,116,119,121,121,126,123,124,126,122,120,121,120,118,119,122,127,125,122,122,123,123,118,112,101,102,120,122,121,119,117,125,101,132,123,121,122,122,123,117,99,108,120,119,120,122,118,117,107,130,124,120,119,117,117,119,143,117,121,121,114,113,115,125,162,133,126,123,124,129,131,123,170,124,119,119,113,114,120,116,119,124,123,119,116,116,116,122,107,120,123,122,126,125,120,128,121,124,124,122,121,120,120
125,124,124,126,124,123,123,126,111,103,115,121,121,120,116,122,120,141,132,122,121,121,120,117,122,123,113,122,120,119,123,120,119,116,122,122,120,116,114,119,121,119,117,122,121,120,122,121,132,156,140,123,122,116,119,124,119,120,120,122,120,120,120,119,125,131,124,122,120,119,121,130,119,141,111,119,119,119,120,118,115,128,124,123,122,120,111,108,111,107,115,118,120,121,133,134,126,150,122,125,121,119,115,119,124,136,115,120,120,118,114,118,120,97,126,123,123,125,126,125,128,114,132,125,122,124,122,121
121,167,120,120,119,127,124,125,114,137,121,122,124,140,136,119,121,79,129,125,122,119,119,121,114,110,129,124,122,120,123,121,120,145,115,120,118,115,115,121,115,114,130,126,122,119,120,119,118,105,116,118,120,119,119,119,122,120,128,121,120,122,124,120,131,170,125,125,123,119,114,116,124,126,132,126,123,124,123,125,122,91,104,120,120,121,120,120,123,102,130,124,122,120,118,120,128,130,109,119,120,127,130,122,120,148,126,123,120,118,118,117,123,100,129,126,127,139,132,124,118,122,122,122,120,121,122,115
123,128,122,125,122,119,121,130,118,129,123,123,122,117,123,118,126,133,123,121,120,117,119,120,121,104,119,122,124,139,130,118,127,135,119,119,121,132,127,119,117,138,119,123,121,116,121,125,123,133,136,123,120,119,119,121,121,113,121,120,120,122,121,121,120,143,129,124,121,121,121,120,110,99,115,123,122,123,124,120,113,109,119,121,121,121,120,116,129,132,128,122,121,117,120,122,125,142,116,123,122,119,116,120,118,121,126,121,121,118,119,121,121,118,118,119,118,122,124,123,117,105,120,124,124,122,121,121
131,147,123,120,120,122,121,122,118,145,123,120,119,117,116,118,113,94,114,121,121,119,119,119,126,112,129,125,121,121,120,120,123,135,123,119,119,119,119,118,115,120,114,121,120,121,118,120,120,115,119,120,119,118,123,115,129,125,128,122,123,122,121,127,100,94,114,119,120,114,116,115,123,135,117,121,122,120,119,119,125,118,132,121,119,126,127,115,121,120,117,120,122,122,122,123,127,149,124,122,119,115,117,121,121,117,120,122,123,125,124,123,122,140,123,123,122,127,126,121,114,124,120,121,120,119,118,114
133,132,106,117,120,120,120,123,121,121,134,123,121,119,119,119,121,127,124,123,123,131,129,125,117,101,119,123,122,122,122,119,122,134,114,119,121,119,119,119,115,111,116,120,120,119,120,118,121,116,125,120,120,121,122,117,114,110,122,122,119,119,117,117,127,135,116,122,121,118,119,117,119,112,117,122,121,126,120,117,120,142,122,119,120,118,119,120,126,129,125,124,121,119,119,120,117,121,117,121,121,119,119,120,124,130,112,118,119,119,120,118,122,121,131,125,123,122,125,121,115,119,118,120,119,118,117,115
126,121,114,122,122,121,121,122,116,124,137,125,120,118,122,117,121,102,117,118,119,120,121,122,118,117,113,122,120,118,118,121,120,147,123,122,123,120,123,119,122,129,133,123,124,146,140,129,114,96,116,121,119,117,117,114,122,121,112,121,121,117,116,115,123,143,122,122,120,122,124,123,114,113,115,122,121,115,111,114,118,101,127,123,121,121,123,121,118,125,125,119,120,122,121,118,127,138,118,123,122,120,120,124,124,123,122,123,119,120,122,121,117,118,129,122,121,118,118,116,117,94,119,123,122,126,128,123
125,147,126,121,121,117,117,119,116,116,119,120,120,127,125,120,120,127,121,123,121,121,122,123,123,131,117,122,121,118,117,116,123,125,113,120,120,120,119,128,110,129,124,118,118,117,118,112,118,113,128,123,121,111,118,121,123,139,107,120,122,122,121,113,133,145,132,122,120,119,117,123,120,113,110,120,120,120,121,119,116,100,111,121,122,120,120,118,126,123,135,124,122,122,122,123,130,131,119,121,122,123,124,123,113,114,114,120,118,119,119,116,117,101,118,123,122,122,122,118,124,132,124,122,122,121,122,124
123,117,128,124,122,122,123,122,115,123,109,118,119,119,119,116,119,116,114,122,122,119,118,121,121,131,116,119,120,119,121,120,125,144,122,122,121,119,127,122,121,70,118,122,122,123,120,127,115,114,138,122,121,117,118,118,119,123,111,121,121,117,119,119,125,131,117,121,121,119,119,121,117,126,116,120,121,120,121,119,120,117,116,122,121,121,123,125,116,114,115,121,120,121,119,117,129,144,129,125,121,120,118,126,114,109,115,115,119,120,122,115,117,116,114,125,122,118,117,119,116,125,113,120,119,122,120,119
123,142,131,122,122,120,118,122,121,110,124,122,122,122,125,120,115,112,114,121,121,114,115,120,125,129,119,120,122,132,133,121,112,150,115,121,121,122,118,118,119,102,135,124,121,119,123,127,118,115,109,122,120,121,122,118,120,88,123,122,122,121,122,120,117,137,126,121,121,122,121,122,122,126,125,122,123,122,120,117,119,117,116,122,121,117,115,117,118,108,118,120,122,123,127,119,127,146,130,125,120,122,122,123,118,130,112,118,120,119,119,118,118,115,109,122,122,122,123,119,124,146,137,125,122,129,131,123
125,121,106,119,119,117,115,118,119,115,115,121,121,120,122,120,114,91,127,122,122,121,123,120,119,122,110,120,120,120,121,119,121,150,123,122,120,121,120,119,115,113,120,125,124,123,123,122,120,115,120,121,120,121,119,122,123,139,118,120,121,122,126,112,123,125,116,120,121,117,115,123,119,127,119,121,122,119,117,119,125,103,131,122,122,120,122,122,124,134,123,123,121,117,122,123,118,136,109,121,119,113,111,117,123,135,127,122,121,127,127,118,119,137,129,121,121,119,116,120,119,125,117,122,123,121,120,121
123,149,116,122,120,119,118,120,115,104,116,122,120,119,120,119,122,96,129,124,123,122,122,121,122,110,127,122,122,120,121,123,123,145,119,119,119,125,127,121,122,132,122,122,121,120,121,120,121,102,125,124,122,121,122,120,119,105,110,122,121,122,116,121,114,100,130,124,125,146,142,118,116,118,104,119,120,113,115,118,123,123,132,122,123,135,134,126,115,90,118,123,122,119,119,121,126,173,113,119,119,122,122,120,119,117,123,124,123,123,122,121,115,113,113,121,120,119,121,120,129,139,127,122,121,130,127,119
115,140,128,121,120,120,117,121,123,141,123,122,122,127,134,127,120,122,122,123,121,124,126,120,116,127,115,120,120,121,119,117,125,134,132,124,121,117,115,122,128,153,129,124,120,119,118,124,103,85,108,122,122,121,122,120,122,101,118,120,118,119,121,120,123,142,139,125,122,121,120,118,123,144,119,118,118,116,125,124,117,117,121,122,120,135,130,118,119,118,116,122,121,120,120,121,124,150,125,123,119,116,117,116,122,98,124,124,124,122,124,122,121,103,119,119,121,117,115,120,131,126,130,126,122,120,120,123
118,134,120,123,122,121,120,120,122,121,121,122,120,119,126,120,120,108,121,120,121,122,120,120,123,138,130,121,120,121,123,119,120,122,109,121,121,119,117,120,123,126,128,124,122,120,122,121,118,117,113,121,120,120,121,122,114,110,117,122,121,119,119,114,125,135,122,122,121,119,121,124,123,121,115,120,120,119,119,119,111,99,123,123,122,117,117,119,119,113,115,119,117,117,116,122,126,154,115,123,120,119,118,119,116,108,137,123,122,120,121,120,118,103,113,120,121,121,121,115,124,119,119,122,120,120,120,123
121,146,120,122,121,120,115,117,122,137,113,118,119,118,119,120,123,108,129,120,119,115,115,118,122,78,126,126,123,125,128,124,124,140,122,121,119,121,123,122,124,139,115,124,124,129,123,124,115,103,131,124,123,121,121,121,119,117,116,119,120,122,120,118,119,111,109,121,121,123,123,122,120,130,127,122,120,117,116,117,116,111,123,121,120,120,121,119,123,109,130,122,121,119,120,120,120,153,116,120,120,119,120,119,121,129,114,121,122,121,121,121,118,111,124,123,122,130,125,121,119,110,116,119,120,119,120,121
126,138,122,124,122,120,116,121,119,123,120,121,120,118,119,120,118,121,115,120,118,113,116,121,120,125,132,123,124,123,123,123,120,144,113,119,119,117,117,115,117,106,133,122,121,122,122,129,117,115,108,120,121,120,118,116,120,103,112,122,121,115,115,117,130,162,124,120,121,120,123,128,117,110,126,124,124,129,125,116,126,109,122,123,121,118,118,120,119,133,120,122,121,121,120,120,121,154,123,120,120,113,116,120,127,126,131,126,122,119,116,118,121,92,118,119,121,115,123,125,120,110,138,127,124,122,119,119
122,138,115,122,123,137,134,123,118,127,140,121,119,117,118,118,117,118,117,121,120,118,119,118,120,103,118,123,123,125,124,121,123,140,123,123,122,123,123,122,120,136,114,120,121,121,120,117,122,132,128,123,123,122,124,120,121,113,117,123,122,122,123,120,125,147,116,120,121,119,119,122,116,85,135,123,124,121,124,124,115,105,107,119,120,120,119,117,123,121,131,122,121,118,120,120,124,136,113,120,120,127,120,123,113,124,127,123,121,119,118,113,120,110,109,119,122,121,123,120,118,114,123,122,113,109,113,116
123,139,126,124,123,123,122,122,119,144,108,120,119,118,118,118,115,118,127,119,121,123,123,118,119,100,120,122,124,123,119,118,116,127,117,120,115,116,117,120,118,121,108,120,123,122,121,118,121,122,131,123,124,122,122,121,119,114,122,123,123,121,119,121,118,143,109,120,118,123,118,114,122,108,121,120,124,121,130,123,120,124,128,123,121,120,120,115,115,98,113,124,121,120,120,120,124,142,125,122,120,122,119,118,124,121,127,124,123,132,135,121,121,124,118,119,121,123,118,115,123,100,132,125,121,118,121,125
129,151,126,120,121,123,123,121,117,123,102,120,121,120,120,118,123,107,140,123,121,121,130,123,114,113,114,122,123,121,120,120,122,159,119,121,119,121,119,116,121,121,127,123,121,120,122,122,120,116,123,123,121,117,115,121,119,125,126,122,123,121,121,122,126,130,119,121,118,114,120,122,118,121,121,123,122,123,118,119,117,119,116,123,123,122,128,121,117,113,116,121,120,118,120,119,126,152,115,116,117,117,117,119,117,107,125,125,122,122,123,121,124,103,122,123,124,124,129,122,121,107,114,120,119,116,119,120
122,132,117,120,122,127,125,124,124,136,126,122,122,119,119,119,118,100,121,123,121,122,123,120,116,120,127,120,121,121,121,120,122,113,110,120,121,117,116,121,118,118,113,119,118,119,121,120,124,124,131,122,121,119,119,120,119,116,123,123,123,121,123,122,125,156,115,123,121,121,119,118,123,135,126,123,120,119,118,118,114,92,120,123,121,123,123,122,129,124,129,121,122,116,127,120,121,132,116,122,122,126,121,122,120,132,116,121,120,119,119,119,123,121,117,120,120,118,117,117,123,144,123,122,123,120,120,120
129,137,135,124,124,122,122,123,115,114,104,121,122,137,130,115,126,134,138,124,122,114,120,124,122,103,116,125,125,128,128,122,125,146,116,119,118,118,118,120,125,127,127,122,122,124,124,127,114,111,118,120,119,117,117,118,112,89,123,124,122,122,119,120,119,127,114,122,122,121,122,122,124,156,116,122,122,120,120,120,116,108,119,121,119,120,120,119,123,113,123,125,123,122,122,122,119,133,121,120,120,122,122,120,114,99,113,121,122,121,122,119,119,106,136,123,120,117,118,118,119,101,120,122,121,124,123,120
127,135,119,122,122,119,118,119,119,135,117,119,121,120,119,131,118,113,125,124,121,120,123,118,127,106,106,120,119,119,116,118,121,141,142,126,123,122,124,124,121,129,122,124,124,121,120,120,119,110,111,120,120,121,120,120,116,114,126,124,121,122,121,117,118,116,112,119,120,122,121,119,117,137,120,121,121,124,123,119,116,108,120,121,121,119,120,119,124,133,123,122,122,121,121,122,124,127,110,122,119,119,120,122,121,122,131,121,121,122,121,119,114,121,111,120,120,119,120,118,116,85,116,122,121,122,123,120
121,146,121,121,121,116,113,119,121,140,115,120,121,125,130,120,121,112,125,121,121,125,123,119,118,98,117,120,118,118,119,117,119,128,118,123,122,123,120,122,122,136,120,122,121,118,122,117,115,112,121,123,122,118,120,121,124,113,111,121,120,120,119,118,121,135,126,121,121,123,122,121,119,118,138,126,123,122,122,123,115,98,115,119,119,119,120,119,121,112,121,123,122,121,120,120,127,152,117,122,120,119,118,123,117,107,134,122,123,124,124,119,124,122,118,120,119,120,119,118,124,101,122,120,121,117,121,121
120,147,115,118,119,119,119,119,119,129,121,122,121,119,120,117,121,117,128,124,121,117,119,119,123,114,114,121,120,116,116,119,115,121,122,124,122,126,125,121,120,108,113,121,122,123,127,123,118,115,133,125,121,120,118,120,120,114,117,121,121,121,121,120,120,138,120,121,120,118,116,118,117,109,127,123,123,129,127,119,122,129,123,123,121,122,119,115,122,127,118,123,123,125,123,120,124,145,122,122,122,118,117,120,118,124,129,121,121,122,125,120,112,91,111,118,121,131,126,121,121,111,131,123,122,119,120,121
119,117,111,122,122,119,119,119,125,109,123,123,121,126,124,120,122,113,132,124,122,133,131,123,123,109,115,120,121,118,116,120,122,131,121,121,120,119,122,118,120,118,111,121,121,121,119,120,125,119,117,124,122,128,123,119,117,104,131,123,121,118,119,119,120,134,112,123,121,123,123,121,119,126,112,118,119,121,120,119,120,109,131,125,124,122,121,118,115,103,112,122,121,116,114,118,120,144,118,122,121,129,130,118,117,123,122,124,122,117,117,119,121,120,125,121,122,120,120,118,122,118,116,120,120,120,120,119
119,121,119,121,121,121,120,122,119,121,115,122,123,127,123,121,115,108,115,120,119,114,114,116,122,128,115,122,121,122,120,120,123,132,131,123,122,122,122,121,116,114,121,123,121,119,120,120,122,110,118,120,123,115,115,122,121,120,127,119,117,120,125,120,121,135,121,125,122,119,117,117,123,140,117,119,118,116,115,121,117,110,126,122,122,121,124,121,115,99,120,122,121,121,120,121,124,148,118,121,120,116,111,119,119,122,123,122,120,123,127,119,118,117,119,120,121,120,121,121,120,133,117,120,120,120,120,119
123,129,119,122,121,124,129,123,123,117,127,124,123,122,121,121,115,134,123,122,120,121,121,120,123,112,120,120,122,121,123,121,124,143,118,123,120,120,121,120,116,122,105,119,119,119,120,118,123,147,136,125,121,123,121,118,121,110,127,123,122,119,120,120,123,130,122,121,123,122,123,123,120,111,125,120,122,121,122,123,120,123,115,119,121,123,123,125,121,109,121,123,120,118,118,119,126,137,117,121,121,129,130,121,116,121,124,122,121,118,117,119,121,100,122,123,122,123,122,119,122,125,119,120,121,125,120,119
121,133,124,123,121,118,118,120,123,142,118,121,121,121,120,119,115,117,121,120,119,114,117,120,123,133,121,119,119,120,120,121,123,131,120,123,123,133,127,120,120,111,115,121,122,120,120,117,121,116,119,118,120,121,121,122,116,94,120,123,122,122,122,121,121,147,119,122,121,125,122,120,123,125,121,121,120,116,118,119,118,117,129,123,121,125,124,118,118,119,116,121,121,120,117,118,125,150,115,122,121,121,123,120,117,100,119,117,120,122,122,120,125,107,127,124,124,121,120,125,121,116,117,121,122,122,124,120
123,149,124,122,121,116,117,120,123,116,120,123,122,124,125,121,117,106,117,120,122,128,125,122,115,104,124,121,121,120,120,117,122,134,115,121,121,129,123,121,121,138,130,123,123,121,121,121,119,105,116,122,121,119,119,119,118,114,117,121,122,131,128,118,121,142,117,123,122,120,119,119,121,98,137,125,122,121,119,122,120,111,113,119,121,122,128,119,120,103,126,122,122,121,119,121,123,154,121,122,120,122,120,119,124,138,115,120,120,115,117,121,116,114,126,122,121,128,126,120,121,127,122,120,119,119,119,119
121,125,115,123,122,120,120,120,124,135,124,121,121,121,121,122,121,102,117,121,121,119,121,120,117,124,126,122,119,119,120,125,123,118,117,122,120,117,119,119,118,135,117,120,121,121,123,119,118,114,121,121,120,116,117,118,115,108,122,121,122,134,128,117,120,147,125,124,122,119,117,121,119,135,115,119,121,118,119,119,124,114,125,119,120,120,122,119,118,120,123,124,122,120,121,119,124,134,114,121,121,123,121,123,121,125,128,120,120,119,119,117,119,122,118,119,120,120,120,118,120,112,119,120,121,121,120,121
126,130,122,123,121,120,118,119,119,144,126,123,121,118,118,117,118,108,112,119,121,121,118,118,117,110,124,124,122,121,122,119,122,154,120,118,118,124,121,118,118,86,121,123,123,120,121,123,117,127,128,123,122,124,121,121,123,123,116,120,121,122,122,117,122,137,118,122,123,130,126,122,121,138,127,121,121,120,120,122,117,97,120,121,119,119,120,117,119,121,120,121,120,121,121,121,120,126,118,123,120,118,117,120,122,127,123,122,121,121,125,123,119,108,125,123,120,113,114,118,119,122,113,119,121,126,125,117
119,122,121,123,122,120,121,122,124,138,120,123,120,120,120,121,120,113,121,120,120,121,121,119,117,110,120,122,123,119,121,121,126,145,123,124,122,130,123,119,121,126,123,119,121,124,123,120,117,111,118,123,122,120,123,121,116,101,123,121,120,122,122,123,119,139,105,120,122,120,118,117,125,120,141,128,123,122,121,124,119,121,119,122,123,123,127,118,120,101,112,119,119,120,121,119,122,130,125,122,120,119,119,122,119,127,111,121,120,126,126,116,120,118,125,121,120,119,120,122,120,146,113,119,119,119,120,120
126,135,132,123,122,122,122,123,121,134,114,120,121,122,123,120,118,100,123,122,121,120,121,118,118,100,119,120,121,119,119,120,124,144,119,122,121,125,119,120,120,155,124,122,121,119,122,119,118,107,114,121,121,121,122,122,122,115,131,122,119,126,121,119,123,109,112,119,121,119,120,120,118,140,113,120,120,115,114,119,117,96,126,122,123,125,127,121,118,99,119,122,121,120,120,117,124,133,121,121,122,119,118,121,123,146,139,123,119,122,124,119,118,82,110,122,121,121,122,121,116,115,123,119,120,116,118,120
119,119,117,123,123,123,124,121,123,114,123,121,121,121,124,123,123,137,127,120,119,120,127,120,121,121,117,122,121,119,117,122,124,127,120,124,122,120,120,114,121,134,115,121,120,118,122,128,120,85,132,123,124,121,123,122,122,115,121,119,118,118,119,119,125,131,121,120,121,121,122,121,121,146,115,121,119,117,119,119,115,123,132,123,121,128,123,116,118,110,113,122,120,120,122,119,129,143,129,126,123,131,126,123,118,140,107,119,119,119,119,119,123,104,123,122,121,122,121,120,121,109,111,120,122,119,123,121
116,138,132,124,121,126,124,120,122,143,124,122,120,117,117,119,122,105,119,124,122,121,121,120,120,109,120,118,119,118,118,121,121,151,119,123,120,122,124,119,125,125,113,122,120,119,117,118,117,103,129,123,123,122,129,119,119,128,123,121,121,119,115,112,121,131,120,121,118,116,126,130,121,136,127,123,122,122,123,119,113,96,107,120,121,116,117,119,129,121,134,124,124,128,128,119,116,92,121,123,123,122,120,124,121,147,117,118,118,123,120,111,118,90,127,125,122,122,125,126,116,130,121,122,121,119,119,117
125,115,119,121,121,122,121,120,120,120,127,121,121,120,122,120,121,139,110,118,118,118,118,118,113,105,135,126,122,120,127,121,124,126,116,121,121,128,125,119,122,109,115,121,122,126,122,119,117,147,120,119,118,112,121,116,123,101,124,123,122,115,119,123,121,137,119,119,122,135,128,118,116,111,111,121,122,116,116,118,119,115,135,123,120,117,121,125,122,106,110,118,120,120,121,119,123,127,123,123,121,117,114,117,120,137,113,119,120,119,118,118,119,108,129,123,122,127,128,120,121,113,125,121,119,117,118,118
113,124,112,120,122,124,121,119,122,129,129,126,123,121,122,121,120,114,121,120,121,121,119,116,121,113,123,121,122,129,120,120,117,134,120,125,121,118,120,121,125,116,132,124,123,129,125,119,121,129,116,119,120,118,119,116,119,104,120,121,122,119,120,121,124,133,123,124,121,119,116,118,117,124,112,119,120,117,114,127,121,113,131,122,122,120,126,118,120,128,119,119,119,119,119,122,125,151,113,123,122,118,114,121,122,116,133,125,125,127,123,121,116,131,121,124,122,125,124,117,121,118,121,119,120,119,120,117
120,124,120,125,122,120,120,123,124,130,125,121,120,128,129,122,121,121,113,119,121,119,118,118,124,136,132,126,123,119,119,120,124,106,118,119,120,127,125,123,121,117,123,124,122,119,119,124,122,153,127,120,120,114,115,117,118,84,112,120,121,122,128,121,121,148,120,123,120,130,128,121,121,132,131,122,122,130,126,116,116,94,117,123,121,121,122,127,115,99,115,118,119,117,115,113,121,129,116,121,120,120,121,126,122,145,126,123,122,115,113,121,119,98,119,124,123,127,127,119,121,130,120,121,121,112,114,120
117,132,118,120,121,138,134,120,117,123,118,122,120,117,119,123,121,128,117,122,122,119,116,117,119,108,121,123,120,121,121,119,129,135,121,122,118,119,113,119,126,131,125,125,123,118,118,119,116,125,113,122,121,121,125,119,117,109,123,121,121,129,121,116,122,124,125,124,124,121,121,122,123,130,118,121,121,119,120,122,116,103,121,121,120,114,118,118,122,96,125,124,123,122,123,120,119,123,113,120,120,117,116,119,118,106,121,125,124,123,122,120,119,117,122,123,121,126,124,121,121,122,119,122,121,117,118,115
121,137,123,121,120,116,111,117,117,144,121,122,121,116,119,119,115,114,132,123,123,115,117,118,119,105,111,117,118,125,123,116,126,140,131,125,120,117,118,123,121,129,112,121,122,137,125,118,119,103,117,124,122,124,129,120,116,94,119,118,118,119,119,120,129,152,126,123,123,121,119,120,122,151,127,123,121,121,120,122,114,82,115,123,123,123,122,121,123,120,121,122,121,118,116,119,121,155,114,120,119,114,114,119,125,130,118,123,124,132,133,119,119,112,131,123,122,118,118,121,122,108,114,120,121,119,118,119
119,132,117,118,118,116,115,117,124,135,118,121,121,120,120,120,121,104,117,121,120,119,119,119,118,134,133,123,122,120,119,122,119,133,109,121,122,120,119,118,120,102,130,124,123,121,121,124,120,126,129,121,120,123,127,119,123,115,109,120,121,123,119,118,121,133,126,122,122,118,118,121,121,125,114,121,120,120,120,119,124,117,136,123,122,119,131,129,116,98,116,120,122,127,124,120,122,139,123,123,123,117,112,119,121,135,124,121,121,118,120,119,123,100,119,124,122,120,119,118,121,111,114,119,119,118,118,120
116,128,116,121,122,123,121,118,122,143,120,120,119,111,113,119,128,118,130,122,122,125,124,121,124,134,118,122,122,120,121,122,123,135,126,123,120,119,121,122,120,134,121,124,120,118,119,119,122,121,120,123,122,121,132,128,121,106,123,118,121,117,115,118,118,143,111,120,119,120,123,120,124,128,130,123,122,120,121,123,120,125,122,123,123,121,124,117,113,97,119,120,121,134,125,119,120,135,122,123,121,117,118,122,121,128,116,118,119,119,121,121,121,112,116,123,121,120,120,119,119,105,123,121,120,119,118,123
131,116,123,125,121,118,118,121,119,131,118,122,120,119,119,120,114,102,118,121,123,122,119,120,123,115,125,119,119,120,117,118,121,115,118,123,123,130,128,121,123,125,135,121,122,128,131,122,114,107,117,122,122,122,123,119,113,88,115,122,120,111,107,115,129,145,121,122,122,125,128,120,121,130,113,122,121,121,122,119,114,93,138,125,122,125,123,118,122,116,123,125,123,121,119,119,122,109,120,122,122,121,120,122,119,131,118,119,120,119,120,121,119,112,117,122,121,121,119,117,125,114,129,123,122,126,126,121
123,106,123,122,120,114,113,123,120,157,113,119,121,124,122,121,116,118,119,122,121,117,119,116,115,94,123,119,121,121,121,121,127,138,121,123,121,120,118,125,122,129,126,124,122,119,119,120,115,95,123,123,122,117,120,119,119,106,119,122,123,139,134,120,121,126,124,125,123,119,118,122,121,131,113,121,121,116,118,119,118,111,116,121,121,118,122,120,116,121,122,123,121,121,119,118,123,137,118,123,121,120,122,122,122,141,114,122,121,119,119,121,120,118,136,124,120,121,121,120,120,95,108,119,121,122,121,114
123,112,119,121,122,117,118,125,127,155,122,122,121,117,117,118,120,103,128,124,124,129,126,121,123,115,119,119,119,119,117,118,118,141,129,120,120,115,118,117,120,129,117,121,121,126,122,121,116,107,113,120,121,120,128,121,123,105,126,124,122,119,118,120,121,135,115,119,120,120,119,119,118,137,128,125,121,121,120,120,116,98,111,118,120,118,120,120,122,115,126,122,122,123,130,122,120,128,129,123,121,122,123,122,119,119,109,121,122,126,123,119,115,94,109,117,118,118,119,117,123,124,125,121,121,119,122,118
123,148,115,121,120,115,118,125,121,137,132,125,121,116,116,120,116,124,116,122,122,126,128,120,121,96,118,120,119,116,119,121,121,115,123,120,120,118,121,120,120,135,116,120,121,122,120,116,120,113,122,120,120,119,119,120,122,128,119,120,122,121,120,121,122,126,122,122,123,142,136,122,121,129,115,120,121,114,116,118,121,118,127,121,120,118,119,119,122,92,121,121,120,122,124,126,122,127,119,121,122,131,127,122,122,123,131,123,119,119,119,117,121,129,119,119,121,120,120,119,118,110,127,121,121,121,121,117
115,115,110,122,122,125,124,122,122,140,127,121,120,119,119,122,114,108,112,120,120,115,115,119,125,118,130,125,123,125,130,122,125,103,122,124,121,119,121,122,110,128,120,120,120,119,117,119,119,123,122,123,121,124,123,117,116,82,117,122,122,118,119,123,121,139,135,122,123,132,124,121,119,138,113,122,121,117,113,112,123,125,123,120,120,120,124,127,113,81,119,121,122,119,117,119,127,140,126,122,120,128,125,121,118,111,116,118,117,111,117,119,123,115,115,122,121,120,120,123,120,124,123,120,120,128,126,113
