121,123,122,121,119,121,118,119,122,122,121,122,122,117,120,124,120,121,121,121,121,122,122,117,120,121,120,119,120,121,115,116,121,122,122,122,121,123,113,123,121,124,122,123,122,121,126,127,120,120,121,123,123,120,125,125,120,120,121,122,121,120,120,119,122,122,121,122,119,122,105,113,121,123,122,122,120,120,124,123,119,120,121,125,122,123,122,97,121,119,120,121,122,122,118,109,122,124,121,120,121,121,116,121,120,122,121,121,120,118,125,129,120,120,120,122,123,119,127,121,119,121,120,121,121,122,118,144
121,122,121,122,119,125,107,134,123,122,122,122,121,120,128,121,120,121,121,122,121,120,125,116,121,121,121,123,119,122,120,121,121,121,121,121,121,122,116,115,121,121,119,121,121,120,125,124,120,121,120,123,122,119,128,113,120,121,120,120,119,122,119,85,121,122,122,121,119,122,113,123,121,122,121,124,122,120,127,130,121,122,121,120,123,122,128,110,119,119,121,120,123,121,116,135,120,121,120,123,120,120,116,122,121,122,120,122,123,118,126,119,122,122,121,122,121,121,133,98,121,124,122,122,120,122,119,116
119,118,121,120,119,118,113,119,119,121,121,123,121,119,125,131,121,122,122,123,121,121,125,123,121,123,121,120,121,121,115,114,120,118,119,122,119,121,118,112,120,124,122,122,121,121,125,115,122,122,122,123,121,121,124,123,120,122,121,122,122,122,116,126,120,120,121,122,121,121,117,121,121,121,121,124,122,120,124,121,120,122,121,121,121,119,124,122,120,122,121,121,122,124,119,128,121,122,121,123,119,121,113,117,121,120,119,122,120,121,121,121,120,120,121,121,121,121,128,119,121,122,121,121,123,126,118,115
120,121,121,122,121,123,113,109,120,123,120,122,121,119,129,130,122,120,121,122,121,122,127,123,119,121,121,121,120,121,116,118,121,120,121,122,120,124,110,118,120,121,119,121,120,120,130,123,119,119,120,122,122,121,127,122,121,122,121,123,122,121,115,116,122,121,121,121,122,122,116,119,118,119,120,122,121,120,122,120,121,121,121,121,122,120,132,118,122,122,121,120,120,122,117,120,122,123,122,122,121,121,114,118,122,120,120,124,121,119,125,126,119,120,120,122,121,123,122,124,118,120,121,121,123,124,116,121
122,121,120,122,119,123,119,117,121,122,122,123,123,120,124,117,120,122,122,122,122,120,123,123,120,119,121,121,120,121,119,121,121,121,120,120,122,122,116,120,121,122,121,121,124,118,127,117,122,123,121,121,120,121,126,127,120,120,120,122,119,123,116,122,119,120,121,121,119,122,114,121,122,123,121,121,122,120,125,119,121,121,121,123,121,120,126,118,120,120,120,120,119,123,120,115,121,122,120,121,120,122,115,119,121,121,121,124,123,118,121,120,121,123,121,123,121,121,127,123,121,121,121,121,120,121,117,119
119,119,120,120,119,120,117,115,119,122,120,122,122,120,130,119,120,122,121,123,121,119,124,124,122,124,122,119,120,123,117,124,121,121,121,120,119,121,119,121,121,120,120,122,122,120,120,127,120,123,120,122,122,119,130,112,119,119,120,121,120,123,117,111,122,123,121,120,119,122,115,119,121,120,120,122,122,120,123,124,119,120,121,123,122,122,126,131,120,122,121,121,120,120,119,124,121,122,121,121,119,122,114,122,121,122,121,123,123,119,129,128,121,121,120,122,120,122,123,128,119,121,121,121,121,122,117,110
120,119,120,123,121,124,115,106,119,121,121,121,121,118,127,114,121,122,121,122,122,120,128,125,122,123,122,121,121,121,116,128,119,119,120,121,120,122,111,122,120,122,120,123,123,119,124,120,121,121,122,124,121,121,126,130,122,123,122,119,120,121,118,122,121,121,121,122,121,122,120,101,120,124,120,121,123,119,126,106,120,120,121,122,119,120,127,126,119,121,121,121,123,123,119,118,120,122,121,122,119,122,116,120,121,121,121,123,121,119,126,121,120,121,121,122,121,121,122,118,119,120,121,120,119,121,118,114
121,123,122,121,123,123,117,118,121,120,120,122,121,118,123,119,119,121,121,122,121,122,124,128,121,122,121,123,120,119,117,121,121,121,121,120,122,121,115,119,121,121,121,123,122,121,126,151,120,121,121,124,124,121,130,128,118,121,121,121,120,122,118,106,122,121,121,122,120,121,117,103,122,122,120,121,121,120,128,118,121,121,120,120,122,124,124,119,121,122,122,121,121,122,117,127,121,123,120,121,120,120,113,109,121,121,121,124,121,119,123,118,120,120,121,120,122,120,122,115,123,122,121,121,120,123,117,114
120,121,120,120,121,121,119,119,120,122,122,124,121,120,125,121,121,122,121,122,123,121,123,118,119,122,121,122,119,122,117,117,120,121,121,121,121,124,120,121,121,119,119,123,122,118,124,124,120,121,121,121,123,120,124,122,120,120,121,122,122,122,116,124,119,121,120,120,121,121,118,114,121,123,121,123,122,121,121,118,123,122,121,124,122,123,130,121,119,119,120,121,120,122,116,117,119,121,121,122,119,120,114,115,120,122,121,122,122,121,121,128,120,121,120,122,122,123,127,126,120,122,120,120,120,122,117,118
121,120,120,121,119,119,110,123,120,122,122,125,122,118,130,122,120,121,120,124,124,121,126,123,121,121,121,121,120,122,118,122,121,122,122,120,121,121,117,120,120,119,120,123,123,121,122,124,119,122,120,124,120,119,122,116,121,122,121,121,120,123,115,121,121,122,121,120,120,123,120,117,120,121,121,123,122,120,126,121,121,123,122,125,124,122,121,126,121,121,121,122,120,120,118,121,119,119,119,121,120,121,118,119,120,121,121,123,123,119,132,117,121,121,121,123,122,121,124,120,120,122,121,119,120,120,120,121
121,121,121,122,122,124,114,118,121,122,121,121,120,122,125,125,120,120,121,121,123,121,125,126,120,121,121,121,120,121,116,119,121,122,121,121,121,123,116,109,120,119,121,124,121,119,122,117,121,123,122,123,122,121,119,125,121,121,122,122,120,123,119,126,119,120,121,122,122,119,118,117,119,121,120,123,121,119,125,119,120,122,121,121,121,121,123,121,121,121,121,121,122,122,115,117,120,122,121,122,121,121,116,116,122,120,121,122,119,120,129,114,120,121,120,122,120,122,125,124,120,121,120,121,121,121,121,129
120,122,121,121,118,121,117,121,121,122,122,123,124,119,122,121,120,122,120,122,121,122,124,117,120,121,121,119,121,124,117,120,120,120,121,120,119,119,110,116,122,122,120,122,122,119,125,113,122,123,121,123,120,120,123,130,121,119,120,121,122,123,121,127,121,125,122,121,119,121,116,111,119,118,119,123,124,119,125,107,120,121,121,122,123,120,121,124,120,123,121,121,119,121,118,121,120,122,121,120,119,124,111,116,122,122,121,123,121,119,125,122,121,120,120,123,122,122,126,130,118,120,121,120,120,119,116,122
120,121,121,121,121,120,115,119,121,123,122,124,122,119,126,123,121,122,122,123,121,121,124,122,120,121,121,121,121,123,117,116,120,121,121,120,121,122,112,122,120,120,120,122,120,120,134,121,120,122,122,123,122,119,121,126,121,123,122,121,120,124,117,115,121,121,121,122,123,121,119,121,120,121,121,121,121,118,126,129,120,123,121,120,121,122,133,130,121,122,122,120,120,121,114,121,121,121,120,120,119,121,117,113,120,120,120,122,120,122,125,119,121,123,122,123,122,119,123,119,120,123,121,121,122,122,115,117
120,119,121,120,121,120,114,116,120,121,121,122,120,121,123,122,119,121,121,123,122,121,130,125,120,120,121,122,122,123,115,116,120,121,121,121,120,122,118,116,121,121,120,122,121,121,129,120,121,122,121,123,122,121,130,122,121,121,120,121,120,122,121,118,120,122,120,121,121,122,112,116,120,121,121,122,122,120,126,122,121,121,121,123,122,121,123,124,121,121,120,119,120,122,117,126,121,122,120,119,120,122,116,117,121,123,122,124,124,121,119,119,120,121,120,122,121,122,134,122,120,121,121,123,119,121,122,114
120,121,121,120,118,120,108,114,121,122,120,122,121,120,125,124,121,120,121,121,123,120,127,123,120,122,121,121,121,121,116,119,121,122,120,122,120,123,113,117,120,121,120,122,120,122,123,119,121,122,121,121,123,122,129,126,121,122,122,121,122,125,112,121,119,120,121,122,122,120,116,115,120,121,121,123,120,120,133,123,121,120,121,123,121,123,121,120,121,121,120,120,119,120,118,117,121,121,121,121,122,121,118,118,119,123,121,123,122,118,124,119,122,121,121,124,120,122,128,123,120,122,121,119,120,121,117,119
121,121,120,120,120,121,114,119,121,122,122,123,124,119,125,121,121,120,120,122,122,120,126,121,118,121,120,120,119,123,117,123,120,121,122,121,120,122,116,117,121,120,120,121,122,119,132,125,120,122,121,123,123,120,128,130,120,122,122,121,121,122,115,124,121,122,121,121,122,121,117,118,120,120,120,122,122,122,130,117,121,121,121,122,122,120,125,119,121,121,120,120,120,123,116,119,120,123,121,120,121,120,117,103,121,120,119,121,122,121,124,122,121,121,121,122,121,121,123,128,121,123,121,121,120,123,116,139
121,123,121,122,120,125,113,111,121,121,121,122,123,117,125,115,119,119,120,122,123,120,126,125,121,123,121,119,121,125,117,117,122,122,120,122,121,120,120,120,119,118,119,122,122,122,124,117,119,121,121,123,122,120,126,124,121,120,121,121,122,123,119,122,121,122,122,122,120,123,114,116,121,121,120,122,122,122,126,116,120,121,120,121,120,120,125,119,120,121,120,121,120,123,114,121,119,120,121,122,121,122,118,114,120,121,121,123,121,118,121,126,121,121,121,122,123,123,123,121,120,121,120,121,121,122,119,113
121,121,121,121,121,122,116,119,121,122,122,124,120,118,125,124,119,122,121,122,122,121,124,123,120,121,121,121,120,121,115,119,120,122,120,120,121,121,114,126,121,122,122,123,122,120,124,123,120,121,121,121,123,121,125,122,120,121,121,122,120,123,117,124,120,121,121,121,121,122,116,114,120,122,121,124,120,118,123,114,120,121,121,123,122,119,127,116,120,122,121,121,121,123,115,118,119,119,120,122,120,123,117,121,121,122,121,122,121,117,127,128,120,120,121,123,123,121,120,121,122,123,122,120,119,121,118,116
121,122,120,120,120,121,119,118,119,119,120,122,122,121,127,115,121,123,122,122,124,122,124,119,122,122,121,121,120,123,116,123,120,121,121,122,119,122,112,127,119,121,121,121,123,119,133,120,120,122,120,122,121,118,122,121,121,122,120,121,120,122,116,118,120,121,121,121,122,124,114,116,121,123,121,121,120,122,121,128,121,122,122,121,123,118,127,129,121,120,121,121,119,122,125,118,120,121,120,122,120,121,117,117,120,120,121,123,122,118,124,119,121,122,120,120,122,121,124,126,119,119,120,122,121,120,117,121
120,122,122,120,119,121,119,119,120,121,121,123,123,120,128,114,120,120,120,120,122,119,124,117,120,122,121,121,123,124,115,116,121,123,122,123,120,121,117,121,121,121,121,122,120,119,130,123,121,122,121,123,123,120,122,121,119,121,121,121,120,119,118,123,121,121,121,121,120,119,118,121,120,122,121,122,122,120,124,117,122,124,122,123,122,123,127,121,120,123,121,122,120,123,119,113,119,118,119,120,120,122,115,119,119,121,121,122,122,119,124,120,121,123,122,122,122,119,124,119,122,123,122,120,119,121,121,117
120,120,120,121,119,124,115,120,121,123,121,121,122,117,125,121,119,119,120,122,124,121,123,123,121,121,121,121,119,124,120,117,119,121,121,121,121,121,119,160,121,122,121,123,121,120,125,132,120,122,122,122,122,121,125,96,121,122,121,122,122,122,118,105,120,121,120,121,121,123,116,109,121,123,120,123,120,121,123,109,119,120,121,121,122,122,128,126,121,121,120,121,121,120,118,119,120,122,122,121,121,124,114,118,119,119,120,123,121,119,124,124,120,121,121,122,123,120,121,126,120,122,121,123,121,123,124,119
120,122,121,121,120,120,118,121,121,123,121,123,120,118,124,128,120,120,121,122,120,121,128,124,119,121,120,120,120,122,116,117,121,122,121,122,122,121,120,110,121,122,121,123,119,119,127,115,121,122,121,123,122,118,124,119,120,120,120,122,121,122,117,133,121,123,122,120,121,122,119,126,119,119,119,121,122,121,119,120,120,121,121,122,121,121,123,106,122,122,121,122,119,122,119,121,121,124,122,122,121,122,116,118,121,122,122,125,123,120,129,125,120,121,120,121,121,120,122,138,119,119,120,120,119,119,113,117
121,122,121,119,120,122,123,111,121,123,122,123,121,118,122,118,122,122,121,122,123,121,123,121,120,122,121,120,119,125,120,114,119,120,120,121,118,122,121,103,119,119,119,122,123,117,124,120,121,123,122,123,123,120,124,127,121,124,122,122,121,123,119,131,119,119,120,121,120,123,120,127,120,123,120,123,120,118,122,129,120,120,122,124,122,120,114,110,122,122,121,121,118,123,119,116,122,122,120,120,120,121,118,109,122,122,122,122,123,119,131,116,122,120,120,122,120,120,127,122,119,119,119,121,120,123,111,123
119,122,121,123,120,121,117,125,122,122,120,120,122,121,129,123,121,122,122,123,122,120,126,119,119,120,121,119,120,120,113,123,120,121,120,123,120,123,119,117,121,122,121,124,124,118,123,118,121,122,122,123,120,119,125,121,123,122,121,120,120,122,121,122,119,121,121,121,121,121,108,124,119,120,121,122,123,119,121,125,120,123,121,122,122,121,126,119,121,121,122,119,119,120,118,117,121,123,121,121,119,121,123,116,121,122,121,123,122,118,127,122,121,119,120,122,121,117,126,127,120,120,121,122,121,123,108,120
119,120,120,121,122,121,116,115,120,121,120,122,121,121,130,118,123,124,122,123,120,121,129,121,120,119,119,121,121,122,119,121,120,121,121,120,120,121,113,116,121,122,121,121,120,119,122,124,122,121,121,123,121,122,127,130,120,122,121,122,121,120,121,123,120,121,120,121,120,121,117,122,121,121,121,123,122,119,123,114,121,119,120,121,121,119,120,117,120,124,120,120,123,124,118,112,120,118,120,122,120,124,115,123,120,122,122,123,122,118,127,124,120,123,122,123,121,121,122,119,120,120,120,120,120,123,117,122
120,121,122,121,118,119,112,117,120,120,120,124,123,119,126,118,120,121,120,122,122,120,133,125,122,122,121,121,120,122,124,116,121,123,122,119,120,119,117,122,122,122,121,124,120,119,117,128,121,122,122,123,119,121,125,120,120,121,121,121,122,121,118,117,121,122,121,123,121,119,117,117,120,120,120,122,122,120,126,121,122,123,123,121,121,120,127,122,120,123,122,123,122,125,120,116,119,120,121,121,120,121,117,116,120,121,121,123,121,119,122,118,120,121,121,122,122,121,124,115,122,123,122,121,120,123,122,121
120,121,121,122,121,120,114,127,119,120,121,123,121,118,123,133,121,122,121,123,121,121,125,124,121,121,120,121,123,123,120,115,121,121,121,121,121,121,120,118,120,121,121,122,123,119,122,125,121,122,122,121,120,121,123,124,120,119,119,123,120,123,118,117,119,120,119,121,120,123,116,119,121,123,122,121,122,118,123,116,121,122,120,122,121,120,124,123,120,121,122,120,123,120,118,122,122,121,121,121,121,122,117,119,122,123,121,124,122,121,127,124,119,121,123,123,122,120,127,127,120,121,120,122,122,121,118,126
121,122,121,122,119,121,115,109,120,120,121,122,122,121,120,129,120,122,121,124,121,118,120,121,120,121,121,122,121,123,118,109,121,122,121,122,121,121,114,113,121,122,121,123,121,120,127,127,121,123,121,123,124,117,124,125,120,121,121,121,119,123,119,117,119,119,119,120,119,122,115,111,120,122,121,121,123,121,120,121,121,123,122,122,123,120,126,124,121,122,121,123,121,121,122,117,122,123,121,120,119,121,122,120,120,121,120,122,123,120,123,126,120,122,121,121,121,122,127,122,120,120,120,122,120,122,121,116
119,119,120,120,121,120,116,116,122,122,122,121,120,119,123,125,122,122,120,121,123,121,127,123,121,122,121,123,122,123,116,112,122,122,120,120,120,123,117,118,122,121,122,122,121,120,122,127,122,119,120,121,122,118,122,128,120,122,121,121,119,122,121,116,119,120,121,121,123,122,115,120,121,122,120,122,120,119,127,121,121,122,121,122,122,118,126,119,120,119,121,122,121,121,115,120,120,121,121,121,121,122,114,121,120,121,121,123,122,118,124,121,120,121,121,123,123,122,127,124,119,120,122,122,120,121,114,116
121,122,121,122,121,123,117,115,121,122,121,123,122,118,127,121,120,121,121,123,121,121,125,120,121,122,120,121,122,125,117,120,122,122,121,121,120,121,114,125,120,121,121,124,121,118,125,116,118,120,120,121,123,119,129,118,121,121,120,120,123,123,117,116,122,123,121,122,121,121,117,123,120,120,121,122,121,120,127,122,121,121,121,121,121,121,126,122,120,123,122,122,120,122,123,121,120,123,121,121,122,122,116,117,121,121,120,122,122,119,128,121,121,121,121,121,123,120,119,122,121,120,121,122,119,122,115,117
119,123,121,121,121,124,123,121,118,118,120,123,122,117,132,122,120,122,122,122,121,121,120,120,122,122,121,121,122,121,113,123,120,122,122,121,120,121,112,114,121,122,121,122,122,118,128,125,120,120,120,122,122,122,125,139,121,121,121,121,119,121,116,112,118,119,120,121,120,122,119,116,121,123,122,123,123,121,126,119,121,122,122,122,122,120,124,126,121,120,120,120,119,124,117,119,120,121,122,121,121,118,113,116,121,123,121,125,122,121,126,119,120,120,120,122,119,122,127,118,121,121,121,121,121,121,116,116
121,122,121,120,121,121,112,138,120,121,120,124,122,120,127,119,121,119,121,123,123,122,119,118,118,119,120,121,120,121,121,120,121,122,120,120,121,121,115,111,121,123,121,123,123,120,124,122,122,121,121,122,121,119,120,133,121,122,121,121,123,123,120,127,121,121,121,122,121,121,119,117,120,119,119,122,122,120,129,119,121,121,121,123,122,120,125,119,119,121,121,122,119,122,114,109,121,122,122,120,121,121,121,117,120,123,120,122,123,119,125,126,121,120,120,122,122,121,126,119,120,122,120,119,121,122,117,126
120,119,120,121,122,120,113,113,121,122,121,122,121,121,123,111,120,120,121,122,122,120,121,122,122,123,120,121,120,121,115,133,120,121,122,122,120,120,117,120,121,121,120,122,120,119,125,117,121,123,120,122,121,120,129,117,121,121,121,121,120,120,117,121,122,122,120,120,122,122,117,122,121,122,121,123,122,121,126,121,120,121,122,122,120,121,128,126,120,121,122,121,119,121,114,162,121,120,121,121,121,120,117,107,122,125,122,123,121,118,126,109,120,120,120,121,121,120,126,111,119,120,120,121,121,122,119,110
120,122,122,122,120,120,117,113,121,123,121,123,121,121,125,119,120,121,121,122,121,123,122,124,121,121,121,121,119,119,117,117,119,121,121,121,120,122,120,114,120,119,121,123,123,119,125,128,121,122,119,121,122,122,119,124,121,122,122,121,121,123,117,111,121,122,122,123,120,123,118,117,120,121,121,122,122,119,125,117,119,119,120,122,122,120,126,120,119,122,122,122,118,121,116,117,120,122,120,120,120,122,122,116,122,120,120,121,121,120,127,122,121,122,121,122,122,122,122,124,119,122,121,122,120,122,111,126
120,121,121,120,121,122,124,118,121,123,123,124,122,117,127,120,121,121,121,121,121,119,126,122,121,121,121,120,119,122,119,118,119,121,120,121,120,121,114,115,121,122,121,124,123,120,127,117,121,124,122,121,122,121,122,122,120,121,121,122,120,123,125,118,121,120,121,121,122,119,118,122,121,122,120,122,122,122,126,121,120,121,121,123,123,121,121,122,121,122,120,122,120,121,117,121,121,121,122,123,121,124,115,117,121,121,121,122,121,119,124,119,121,120,121,121,122,120,124,122,121,123,121,122,119,120,117,123
119,119,121,122,122,122,115,123,121,121,120,124,121,120,125,120,122,122,121,121,122,120,122,116,120,122,121,120,120,123,116,118,120,122,121,121,120,121,121,121,121,121,121,123,123,121,123,104,118,119,119,122,121,122,122,107,121,122,122,122,121,120,115,120,122,121,121,122,122,122,115,124,121,123,123,122,120,122,125,124,120,120,121,123,122,121,125,123,120,121,120,120,123,122,115,122,120,121,121,122,119,121,116,123,122,123,122,121,122,121,130,120,119,121,121,122,122,120,126,122,119,120,121,121,121,120,113,112
120,122,121,121,119,121,113,116,122,123,121,125,122,120,128,111,120,121,121,120,120,119,124,122,121,122,121,122,121,122,116,121,120,122,122,121,119,119,119,128,120,120,119,120,123,120,130,128,120,122,121,123,122,119,122,118,119,122,121,120,120,123,118,113,121,121,121,122,119,122,116,111,120,121,120,121,123,121,122,118,119,122,122,124,121,122,120,125,121,121,121,122,121,121,121,124,119,120,121,120,121,121,115,116,120,122,121,121,121,120,129,121,121,121,121,122,121,120,124,119,120,123,121,123,121,122,117,131
121,121,122,122,121,120,118,124,121,124,122,122,122,119,130,119,119,119,119,122,121,120,125,148,121,123,122,119,117,124,117,114,121,122,122,121,121,120,117,116,120,120,121,123,123,119,118,113,120,121,120,122,122,123,128,123,120,123,121,121,121,121,109,112,120,121,121,121,121,121,117,120,121,122,121,122,122,119,122,126,121,120,120,123,120,118,124,118,121,122,121,120,122,120,120,107,120,120,121,121,121,122,115,115,120,120,119,121,121,119,123,120,121,123,122,122,121,119,130,124,121,122,122,121,120,122,121,123
120,119,120,123,123,122,111,119,121,126,120,122,121,118,122,127,119,119,121,122,120,121,122,123,121,122,122,122,120,121,117,119,121,122,122,122,121,121,118,117,122,122,120,123,121,120,133,122,120,120,121,122,121,119,126,122,121,122,121,121,121,123,116,115,121,122,121,122,119,121,116,122,121,121,121,123,123,118,123,125,118,120,120,121,122,121,124,122,120,120,120,121,122,123,118,119,121,122,121,123,119,119,115,115,121,123,122,122,123,121,123,121,121,121,120,122,121,121,125,125,119,120,120,121,121,122,119,119
119,120,121,121,120,120,118,112,120,121,121,123,121,118,126,121,121,124,121,123,122,120,127,124,119,120,121,121,121,124,113,120,122,121,122,122,121,122,113,120,119,120,121,122,122,121,127,124,120,121,120,123,124,119,122,123,120,121,120,120,121,123,118,122,120,122,122,121,120,121,116,115,121,120,120,123,121,120,121,122,122,123,121,122,121,121,126,120,120,122,122,122,120,122,119,115,120,121,121,121,121,123,112,118,120,122,121,122,120,120,124,127,120,121,121,123,123,122,128,123,119,120,121,121,120,121,117,122
121,122,122,121,121,122,116,123,121,122,121,122,121,119,118,117,121,121,120,122,123,120,130,116,120,119,119,120,121,122,120,118,120,124,121,121,120,121,115,121,120,119,120,122,124,119,128,120,119,119,119,120,121,119,121,124,121,122,121,123,120,121,118,121,119,121,121,122,121,124,118,112,122,123,121,122,121,120,129,120,120,122,121,123,122,121,122,96,120,120,120,121,122,119,116,117,120,123,121,121,119,122,116,129,120,120,121,122,120,118,129,134,121,121,120,121,119,119,125,137,122,123,122,123,122,123,114,120
122,122,121,120,123,121,118,120,121,121,120,121,121,119,128,122,120,122,121,123,122,119,127,119,122,122,120,122,119,123,110,116,121,120,121,122,121,124,118,116,119,121,120,122,121,121,121,127,119,119,120,123,123,121,125,121,120,121,121,121,120,122,123,133,121,123,122,121,121,124,118,114,122,122,120,122,121,119,123,122,122,122,122,122,122,120,124,120,119,121,121,123,121,124,119,119,121,121,121,121,120,122,116,117,120,121,121,123,122,119,123,122,121,122,122,121,121,121,123,124,121,121,121,121,121,121,116,124
120,120,121,121,120,120,111,111,119,121,121,122,121,118,127,118,120,122,121,121,121,121,127,121,120,120,121,120,122,124,118,98,121,121,120,122,120,122,115,121,122,122,121,123,122,122,122,127,121,122,120,121,121,121,126,130,120,120,121,119,120,121,120,112,121,122,121,121,122,121,117,119,120,122,121,123,123,119,128,149,123,121,121,123,122,119,122,120,119,121,120,122,122,121,117,103,119,120,121,121,120,123,119,116,120,121,121,122,122,118,129,120,119,121,121,121,122,120,121,122,121,123,120,120,120,121,117,125
122,122,121,121,120,124,117,121,121,121,121,124,122,121,128,123,121,121,121,123,121,120,123,117,118,119,120,122,122,121,114,115,120,122,121,120,122,122,118,118,121,122,122,123,122,120,125,121,121,123,121,122,122,122,126,125,120,122,122,122,120,121,115,123,121,121,121,121,121,123,117,120,120,121,120,122,122,119,128,119,119,120,121,124,121,122,123,121,120,122,122,122,122,121,115,119,120,121,120,122,121,121,117,115,122,122,121,123,121,120,124,121,119,122,121,122,121,120,122,126,120,120,121,121,121,122,118,121
120,121,121,123,119,123,119,121,121,123,122,123,122,120,126,122,121,122,121,122,123,121,125,116,121,121,121,120,120,120,120,115,118,120,121,120,120,120,116,118,121,120,120,122,122,121,121,121,121,124,121,122,124,122,124,126,121,119,120,121,120,121,117,118,120,121,120,122,118,120,118,117,120,122,121,124,122,120,122,121,121,121,120,122,122,121,129,124,120,121,121,120,119,121,115,115,119,120,121,121,121,120,117,120,122,123,122,122,121,119,128,124,122,121,120,122,123,120,127,122,119,119,120,121,121,122,121,112
119,120,121,121,120,123,112,114,120,123,122,124,121,120,126,122,121,122,121,122,123,122,122,126,121,121,121,121,122,123,119,121,119,120,120,121,122,121,117,120,121,121,121,123,122,119,127,125,123,124,121,122,121,119,128,116,120,119,119,121,122,121,115,113,119,121,122,121,120,121,115,118,121,122,121,121,121,119,121,123,121,121,120,121,121,123,125,117,120,121,121,121,118,121,121,123,119,120,121,121,119,121,118,129,122,122,121,123,121,119,126,121,120,122,121,122,120,120,122,95,119,119,119,121,122,124,116,121
121,122,121,122,119,124,117,122,120,123,121,123,121,119,125,125,121,121,121,123,122,120,119,132,120,120,119,120,121,122,119,127,121,122,121,121,121,121,116,124,121,122,120,122,121,121,127,125,120,123,122,122,124,121,128,115,121,121,121,121,121,122,113,118,120,121,120,120,120,123,112,116,121,122,121,121,121,121,127,76,122,121,120,122,123,121,124,112,121,125,121,122,120,121,116,124,121,120,121,120,119,123,118,128,121,121,121,123,121,118,127,131,120,122,122,124,120,121,122,110,122,122,120,121,120,121,118,123
121,121,119,121,119,123,119,128,120,121,121,121,121,117,127,121,120,122,122,120,121,123,126,117,121,120,120,120,122,122,120,121,122,121,121,122,118,121,112,118,121,123,121,121,120,119,127,122,119,120,121,121,121,119,126,121,122,123,121,122,122,124,118,115,119,119,120,121,119,121,118,111,121,121,121,123,123,121,123,117,121,123,120,121,124,119,125,128,120,122,120,120,118,121,116,135,120,121,121,123,118,122,111,118,119,120,121,123,123,120,125,117,121,123,121,121,122,120,128,116,121,120,120,121,120,124,109,116
121,122,122,121,120,123,118,118,121,121,121,123,122,119,129,119,120,121,121,122,120,121,122,119,121,121,121,122,121,123,117,118,121,122,120,120,119,120,118,117,119,120,121,123,122,120,127,119,121,123,122,121,122,119,127,119,121,121,121,122,119,123,122,122,121,122,120,120,120,122,116,124,119,121,121,124,122,118,121,119,121,121,121,123,123,123,121,120,121,122,121,122,119,123,118,119,120,120,120,121,123,124,118,120,119,120,120,122,121,119,126,122,121,121,122,121,122,122,121,120,120,121,120,121,120,122,120,118
122,123,120,122,118,120,120,117,121,120,121,122,121,120,127,125,121,123,123,122,123,120,124,119,120,122,121,121,120,122,117,116,119,119,119,119,120,122,117,119,122,122,121,123,123,120,122,125,121,121,121,121,121,122,129,122,121,122,122,122,121,123,127,124,120,122,120,122,120,119,115,120,122,122,121,121,122,120,127,127,121,121,120,120,122,122,120,120,119,120,120,121,120,122,118,121,120,123,123,120,119,121,119,113,120,122,120,124,123,118,121,120,121,121,121,122,123,122,120,127,121,122,121,120,120,122,119,120
119,119,119,119,119,122,119,122,120,121,120,123,123,119,127,119,121,123,121,122,124,121,124,118,121,121,121,121,121,122,124,122,117,124,121,121,117,119,118,116,124,117,119,121,123,126,124,104,121,123,121,122,122,121,129,121,106,119,119,120,120,111,115,121,133,125,126,125,120,118,121,118,116,120,119,122,125,136,119,113,121,123,124,125,122,100,125,114,118,121,119,119,121,131,126,127,120,120,122,121,125,120,131,110,119,121,121,123,121,118,101,104,122,125,127,125,134,134,114,152,119,121,122,131,121,100,103,241
109,115,113,107,101,87,106,0,115,117,117,117,135,163,162,80,127,124,126,134,144,166,145,0,117,120,117,109,104,89,117,132,115,124,126,117,129,155,114,240,113,119,122,134,133,126,109,240,126,127,125,125,131,167,175,80,108,120,119,130,141,152,44,61,137,132,132,108,118,131,101,124,102,115,114,140,122,115,77,241,96,114,119,125,135,129,113,241,146,121,123,100,113,144,218,240,104,120,115,118,127,73,104,242,124,131,136,148,162,182,100,164,113,130,129,119,141,91,84,132,146,115,113,176,119,88,84,124
111,127,146,145,127,121,127,62,114,123,118,110,109,89,127,0,116,122,120,123,109,98,114,0,120,121,120,129,138,172,155,141,121,116,115,100,84,94,183,237,118,119,112,118,144,91,179,240,114,118,123,149,138,94,195,163,93,121,121,112,101,54,80,131,161,130,123,125,115,166,179,122,100,119,114,101,98,119,94,121,101,124,127,113,106,69,135,120,127,126,127,169,163,96,88,122,118,119,118,113,104,131,83,121,120,111,106,104,94,64,53,122,117,130,125,97,101,139,132,105,139,117,119,119,140,196,144,75
123,125,130,150,133,130,117,76,135,131,131,131,121,73,136,92,105,115,115,138,123,120,116,84,132,121,123,108,115,128,74,74,109,123,122,138,140,122,129,71,99,116,112,107,119,114,119,57,163,131,141,147,156,159,143,60,114,122,120,107,111,131,145,35,113,125,123,135,142,127,117,22,137,111,104,74,93,105,106,36,119,120,123,145,128,80,117,62,110,116,117,100,120,173,151,103,116,121,122,140,116,115,106,156,108,120,122,148,109,149,119,214,134,125,129,119,135,110,118,240,130,125,121,103,107,159,138,240
127,123,120,117,109,110,111,210,123,123,122,130,122,118,127,166,84,124,129,133,119,100,121,139,168,117,117,111,125,178,94,130,114,119,116,106,95,115,131,114,116,125,118,107,94,124,118,100,115,117,118,130,114,68,100,100,119,126,123,130,123,138,140,104,118,116,115,94,122,152,145,89,114,118,114,116,112,68,93,89,126,123,125,122,140,172,154,90,122,125,122,109,117,129,95,88,126,128,131,148,144,166,171,99,113,120,118,132,124,130,128,109,120,122,115,112,112,125,136,117,107,124,130,118,127,139,120,119
148,134,130,123,137,137,131,111,106,111,110,105,89,125,98,111,121,126,129,142,101,119,166,111,112,124,123,120,117,119,95,119,109,115,118,145,139,143,104,120,136,122,117,111,114,76,104,135,130,126,128,105,120,155,112,120,115,119,121,148,143,126,74,116,117,123,121,121,129,127,141,114,140,125,127,112,104,85,138,129,118,116,116,116,114,126,134,104,114,120,120,162,149,125,81,98,121,126,126,112,116,109,135,108,122,129,126,144,126,123,165,117,105,121,120,116,111,149,110,114,127,110,112,105,90,122,141,98
123,128,133,157,165,141,110,90,122,126,121,102,115,119,95,113,131,123,124,114,117,98,141,115,117,120,114,102,114,79,129,112,118,119,122,135,146,141,110,108,120,122,125,111,127,95,144,118,113,118,116,136,106,132,161,118,118,119,122,120,134,149,120,119,141,126,119,95,104,136,115,123,109,122,122,115,107,101,144,130,117,122,125,134,133,190,67,141,114,125,122,110,117,151,135,126,129,124,120,99,94,121,132,130,127,118,107,129,126,101,136,134,123,128,148,140,119,159,113,135,125,127,123,143,148,189,153,120
113,116,116,106,118,84,92,129,121,121,117,122,124,183,139,127,119,118,121,112,116,90,109,131,120,124,117,106,108,130,126,130,120,121,114,103,97,118,121,125,115,125,130,114,120,127,126,132,119,116,113,101,97,121,134,126,104,116,117,124,139,104,122,114,127,117,110,90,124,119,110,113,119,130,127,141,144,158,173,106,95,116,120,123,121,57,117,115,147,119,119,148,143,181,126,132,112,119,109,85,101,93,147,120,123,115,116,109,135,108,102,127,118,122,122,119,129,242,123,133,126,129,129,148,156,136,114,123
109,117,119,108,103,111,121,118,145,119,121,114,125,153,129,122,113,130,129,132,128,161,167,116,123,120,121,120,110,139,131,113,121,122,113,120,135,221,140,122,111,127,134,135,123,91,104,138,139,122,125,116,115,153,188,135,115,122,120,144,145,115,139,139,123,129,127,127,139,123,110,122,116,125,125,166,129,109,119,119,122,118,122,146,119,134,138,121,127,132,123,125,140,103,139,120,148,120,135,131,139,91,102,115,120,122,124,124,129,202,145,123,118,117,114,131,119,110,116,125,121,130,143,159,151,136,169,135
114,120,113,96,102,124,67,130,113,134,143,140,163,117,161,119,139,121,124,129,145,220,162,129,129,115,123,128,130,96,136,131,117,125,120,128,86,125,150,136,124,122,124,118,104,144,105,127,126,123,125,168,128,83,103,129,127,120,119,122,136,148,141,123,123,125,130,135,106,130,165,119,135,122,122,116,96,131,58,129,115,123,117,95,102,108,126,124,108,123,136,170,142,138,113,122,120,120,112,107,103,70,104,127,147,119,108,87,103,123,121,127,108,123,129,158,149,183,155,125,108,122,129,134,138,93,100,120
123,117,115,116,115,114,93,124,121,128,128,119,133,88,150,123,123,124,121,127,130,131,93,121,118,122,120,113,78,106,139,117,105,126,124,106,121,157,131,118,164,117,118,116,140,207,148,117,105,117,110,92,112,107,117,118,118,124,125,135,125,139,128,117,123,117,112,91,106,79,103,117,114,119,121,96,113,108,136,116,116,121,120,125,118,95,198,115,115,116,117,127,133,117,127,116,108,124,126,114,103,158,119,117,112,116,113,114,125,69,112,118,129,126,127,106,130,120,93,117,120,127,124,124,116,115,89,118
96,117,118,123,117,95,113,117,147,114,116,99,89,95,112,119,144,128,124,136,131,151,143,117,106,117,113,143,107,110,90,118,113,125,126,110,153,187,115,118,115,122,126,131,111,93,126,113,144,117,97,63,101,110,140,116,121,132,151,141,131,112,79,118,119,126,130,142,143,114,124,117,122,119,111,102,103,91,130,117,120,128,129,132,142,205,157,117,118,115,115,93,100,73,60,118,129,122,122,113,119,201,188,115,118,118,109,110,128,136,107,118,125,127,135,127,125,110,119,117,127,117,116,117,135,150,105,117
101,125,122,120,144,119,99,117,132,123,133,174,133,144,161,118,116,120,121,127,132,106,51,118,125,119,114,130,90,158,138,118,125,123,119,132,132,101,98,117,115,130,138,161,110,131,85,119,107,125,128,93,84,70,119,117,155,125,128,152,154,148,156,116,107,116,113,141,121,97,99,117,105,118,120,135,120,126,124,117,110,121,118,129,115,77,76,119,134,125,130,147,111,91,134,117,102,116,119,113,142,139,174,116,115,115,115,116,114,103,102,118,101,117,117,113,133,115,130,117,149,131,127,123,112,139,147,116
132,117,121,134,113,113,69,119,115,124,123,120,134,64,121,118,138,119,120,125,91,126,107,119,134,132,132,140,118,65,137,117,114,111,101,81,90,85,148,117,99,127,138,173,163,184,124,118,126,121,108,88,102,86,153,117,117,117,123,114,96,60,141,118,120,124,117,138,152,102,57,119,119,129,139,111,133,130,202,115,138,120,118,139,133,114,106,118,90,115,116,112,114,115,140,117,174,126,114,86,132,132,93,118,104,119,122,136,121,79,117,118,106,118,116,125,142,150,135,118,126,108,109,98,118,165,139,118
119,123,118,122,117,114,104,119,94,118,118,150,157,102,116,118,143,127,120,106,126,180,112,118,136,128,130,87,110,126,153,116,98,116,117,124,94,142,111,118,100,118,121,113,129,134,144,118,151,124,111,96,90,86,138,118,106,124,128,137,117,144,85,119,127,122,110,93,97,124,75,118,119,123,135,153,123,89,105,118,110,115,123,129,122,148,141,117,122,120,108,58,79,95,120,118,124,123,124,137,150,157,115,119,104,125,128,130,112,160,132,118,156,116,122,136,126,120,104,118,113,120,116,97,120,113,100,119
115,119,125,131,153,119,115,119,118,119,117,112,99,99,128,119,134,124,120,111,107,59,126,119,86,121,126,136,159,179,126,118,191,127,125,133,136,134,135,117,95,123,123,133,116,88,115,118,113,117,110,69,102,106,122,117,127,126,124,112,102,155,158,117,121,123,123,119,117,136,97,119,112,114,99,98,95,147,122,117,122,125,132,131,125,123,106,118,123,121,119,105,108,98,111,118,128,115,120,118,111,99,101,119,116,125,117,90,98,122,152,118,110,119,122,143,120,98,121,118,109,118,113,71,86,84,101,118
143,126,125,131,138,176,182,116,125,123,121,105,110,103,182,117,111,119,124,164,127,102,114,119,112,128,126,125,128,144,163,118,138,121,122,109,90,119,178,117,134,128,116,129,133,129,141,117,113,121,127,113,121,78,86,119,108,119,111,100,114,158,153,118,121,119,113,103,132,142,20,120,119,127,125,120,117,115,97,119,118,122,125,114,114,95,122,119,127,119,118,115,120,111,142,118,132,122,129,122,117,179,112,119,121,120,119,116,142,211,200,116,112,123,124,166,137,105,102,121,117,121,123,123,125,164,123,119
112,117,113,118,104,128,67,120,147,117,121,124,149,168,139,118,103,122,120,120,113,94,77,119,136,116,111,112,154,138,126,118,113,126,137,127,113,40,69,119,100,121,116,97,106,149,200,117,177,109,112,137,144,153,133,118,98,118,119,146,116,113,90,119,115,129,120,120,127,146,156,117,112,124,125,83,102,88,128,118,123,114,104,92,103,100,141,118,116,119,125,110,131,139,116,119,122,117,123,135,124,89,118,118,108,113,104,113,120,128,76,119,107,122,120,106,131,108,86,120,130,120,117,118,122,37,133,118
121,124,129,142,139,154,87,119,117,120,119,122,122,101,125,119,114,129,127,126,146,105,124,119,127,115,118,122,132,162,115,118,108,126,130,142,126,120,108,118,152,119,123,129,122,91,28,120,113,125,115,117,129,108,174,116,111,118,139,139,107,80,44,120,120,121,111,84,97,93,146,118,118,117,109,88,94,107,129,118,123,130,136,153,165,202,126,119,120,121,116,114,115,105,124,118,125,123,115,96,109,224,122,117,105,114,126,161,112,84,127,118,132,125,124,118,114,111,133,119,113,122,114,115,106,75,105,119
150,113,121,127,125,106,148,118,112,126,117,110,124,92,153,119,105,120,118,92,94,124,119,118,116,127,137,139,136,182,135,118,115,120,116,104,119,121,104,119,128,117,120,114,130,146,187,117,130,130,138,169,133,104,174,118,111,118,118,117,145,155,111,119,118,120,122,162,155,138,146,118,124,127,125,108,124,114,133,117,117,119,115,124,89,108,130,117,98,120,126,126,115,133,101,119,163,123,125,133,132,121,40,120,120,127,121,103,116,100,128,119,112,124,122,161,141,129,122,119,110,116,120,112,117,120,110,119
91,120,117,122,113,72,112,119,126,111,106,102,113,151,58,120,114,122,122,125,110,114,153,118,115,117,107,119,117,113,123,118,99,124,127,119,111,118,105,118,133,122,113,51,95,176,148,117,107,113,105,98,104,98,144,118,98,126,131,111,109,115,131,118,164,120,107,112,110,159,173,117,105,117,128,114,111,121,132,118,121,121,122,136,132,155,177,117,124,124,121,119,123,132,129,117,122,121,122,144,130,81,135,118,118,129,126,127,118,123,153,118,116,113,115,107,127,142,146,117,120,119,119,128,108,76,100,118
107,117,121,142,141,137,157,117,130,123,118,126,147,145,162,118,117,131,120,106,107,106,95,118,110,104,113,149,109,80,131,122,110,124,133,130,144,123,140,119,144,130,115,98,118,159,143,118,110,122,117,117,105,79,99,119,158,130,142,145,132,171,127,118,119,115,105,73,89,98,118,117,108,121,130,151,138,119,124,117,127,117,110,96,73,12,39,120,101,121,126,126,108,115,199,117,125,122,121,124,128,165,131,118,112,118,117,126,116,71,99,118,105,126,133,120,133,123,121,122,139,122,129,151,142,115,150,118
111,116,103,105,104,124,111,118,129,125,139,131,128,139,99,118,117,119,117,109,117,96,125,118,110,123,114,142,138,147,133,119,120,121,132,102,99,121,105,118,115,122,120,112,111,127,152,117,121,121,118,113,114,95,83,119,130,120,120,108,130,242,130,118,123,121,125,105,136,118,92,119,108,114,105,95,91,67,94,119,119,129,136,130,124,142,188,117,133,119,117,121,138,106,138,118,136,120,119,113,121,113,110,119,118,124,122,106,127,122,142,117,112,118,125,120,149,125,132,118,90,118,124,122,161,129,108,118
146,117,114,114,93,11,96,119,137,125,111,89,123,197,105,119,114,124,125,117,139,76,110,117,101,117,117,130,112,100,127,117,133,129,140,156,153,120,109,118,117,118,118,119,102,131,148,117,107,115,111,117,119,93,103,118,120,125,127,170,116,64,105,118,126,124,123,149,121,99,151,117,105,121,129,129,117,116,137,117,119,121,119,141,130,79,56,119,127,117,119,137,150,70,130,117,113,127,121,105,128,111,119,117,111,125,132,127,118,144,99,119,140,123,115,102,100,115,178,116,114,127,130,129,115,129,118,118
115,120,124,115,100,114,129,118,129,118,118,115,101,69,78,119,102,121,116,117,123,91,131,118,150,120,117,127,101,74,116,119,99,115,114,112,156,184,114,118,118,126,128,120,104,104,116,119,116,119,109,80,118,164,142,118,108,123,122,122,141,88,117,119,146,117,109,125,95,122,138,118,135,132,150,179,149,98,151,118,108,125,125,133,140,162,83,119,125,119,116,131,124,90,147,117,119,114,112,101,99,100,87,119,112,121,118,110,90,95,147,118,114,118,123,129,115,108,97,120,160,130,123,121,126,132,150,118
98,117,113,89,106,112,126,119,109,119,119,124,118,106,127,119,123,126,126,127,122,108,153,118,126,123,126,154,137,141,129,117,134,123,126,104,118,60,105,119,122,133,145,152,167,240,140,118,116,120,116,121,103,92,135,118,117,119,111,110,158,178,154,117,107,117,126,128,139,114,118,119,151,128,117,141,122,125,127,118,106,124,127,141,123,134,110,118,125,122,119,114,100,148,98,119,127,112,110,68,105,176,147,118,104,123,129,146,147,49,148,117,139,122,121,129,136,204,128,118,116,125,123,104,127,112,89,118
151,122,118,107,124,166,139,118,106,121,121,112,124,175,104,119,118,125,131,120,122,126,76,119,133,126,122,116,114,75,105,119,117,121,112,76,108,128,98,118,108,125,134,137,151,140,103,118,131,122,115,114,102,105,129,118,126,120,126,131,103,87,127,118,119,132,131,179,159,114,79,120,122,118,117,68,78,103,109,119,140,126,134,176,215,196,152,117,118,122,110,95,86,69,104,120,137,130,129,124,130,115,103,119,109,116,120,125,116,119,114,119,129,121,118,141,101,115,115,119,144,136,143,159,139,127,141,119
107,119,111,103,102,49,88,120,111,116,115,108,118,147,84,119,171,128,130,100,117,119,124,118,104,122,121,131,112,96,109,119,116,126,121,85,113,98,117,119,125,127,130,142,133,189,164,117,131,122,114,101,119,208,147,117,117,123,136,145,115,89,81,119,119,121,124,144,121,109,83,119,112,119,116,110,130,133,104,119,123,124,122,129,149,106,119,120,134,114,120,154,112,109,130,120,113,120,118,108,134,139,93,120,114,117,110,133,135,92,72,121,112,122,125,115,112,93,115,119,104,110,110,112,104,84,127,120
130,123,118,118,110,153,137,119,143,138,146,186,143,137,107,120,119,126,120,123,122,120,129,120,119,119,119,106,82,102,121,121,116,120,120,116,94,110,150,120,130,123,116,115,123,87,103,121,138,123,124,137,125,134,186,119,121,128,128,109,131,236,138,120,121,107,116,138,122,85,110,121,124,132,130,124,113,128,119,120,108,121,119,126,139,157,100,121,137,130,133,149,155,108,157,118,127,125,121,139,111,174,164,120,119,125,130,137,136,130,112,120,112,117,112,101,108,204,189,119,114,120,132,130,125,145,121,120
127,123,111,101,109,113,143,119,85,122,125,129,123,148,160,120,156,125,123,123,138,180,119,120,97,117,116,103,109,124,140,119,116,116,116,114,117,94,66,122,89,118,114,137,119,97,126,120,133,119,122,125,121,149,155,119,126,122,114,91,99,101,100,120,105,122,123,163,139,103,105,121,107,119,126,123,137,77,105,121,136,118,118,114,116,122,127,119,110,118,116,121,116,97,111,120,131,125,124,137,127,127,101,120,136,133,133,128,134,134,141,119,74,112,119,108,117,102,48,121,138,117,110,104,113,89,205,118
115,132,136,208,139,116,134,120,127,125,118,97,100,98,137,121,110,119,119,119,107,160,150,120,119,114,109,92,100,83,99,121,114,116,111,119,97,54,93,121,100,124,131,128,143,171,98,120,140,118,112,113,101,103,94,121,109,116,105,85,95,68,37,122,100,130,133,157,149,183,65,121,133,109,114,122,117,97,115,120,133,129,134,161,112,121,138,120,104,114,112,125,133,124,127,120,120,121,122,139,135,96,165,119,143,124,121,116,131,206,121,120,115,120,116,118,127,120,113,121,100,116,119,123,104,68,127,120
136,128,130,156,128,143,162,119,129,128,121,122,128,121,117,120,117,121,135,158,130,161,125,120,109,121,121,136,132,126,126,120,107,117,113,127,112,73,100,121,109,114,110,77,87,71,103,121,132,123,123,147,137,162,121,120,134,131,129,161,146,143,143,120,101,115,115,98,77,78,127,120,121,118,113,107,99,94,103,120,130,124,121,115,116,186,190,119,112,124,126,130,122,126,77,121,110,121,121,134,116,118,114,120,140,123,115,111,114,71,97,121,108,118,115,95,131,158,168,119,116,126,128,155,147,174,120,120
122,121,115,137,118,141,167,119,118,117,116,109,82,80,122,120,110,126,128,124,123,176,173,119,128,110,105,101,105,79,98,121,133,128,124,135,118,129,125,120,122,122,118,95,106,87,137,119,118,127,134,150,150,181,104,121,137,126,124,119,124,95,96,121,93,117,113,131,108,62,112,120,127,116,114,92,116,224,82,122,127,123,134,115,109,101,138,119,116,120,117,124,113,141,112,120,115,123,118,114,116,117,102,121,122,119,120,102,112,127,159,120,126,120,108,110,111,112,85,121,123,124,136,149,121,108,114,121
126,123,128,144,127,83,160,119,120,125,122,110,136,198,150,120,118,124,120,161,124,98,121,120,103,115,118,108,112,119,118,120,125,129,124,137,174,176,144,119,121,118,121,123,126,61,79,121,126,124,123,125,111,120,162,119,112,123,118,114,118,122,134,120,127,112,110,102,99,56,96,121,133,131,136,160,151,122,158,119,136,126,122,121,126,145,128,121,119,117,123,160,145,105,135,119,111,119,122,109,135,147,161,119,133,129,116,106,114,121,109,120,116,120,128,112,102,110,140,120,144,131,124,121,136,216,176,119
135,130,127,126,152,123,97,121,103,114,110,82,99,91,129,121,112,122,128,133,134,145,116,119,115,118,110,100,109,80,91,121,134,125,133,183,144,129,121,121,120,123,127,119,112,128,142,120,118,121,123,159,141,127,116,120,123,123,121,117,119,167,132,120,103,119,119,139,113,84,74,121,114,116,115,112,115,140,134,120,126,126,124,116,130,94,116,120,99,117,118,150,122,41,127,121,162,113,111,88,91,154,115,121,107,120,116,121,133,94,91,120,111,127,127,130,131,136,135,120,121,123,125,147,136,95,89,121
121,121,119,103,110,101,145,119,106,117,114,100,103,90,78,120,105,119,117,143,119,61,126,121,143,127,128,135,135,204,187,119,104,119,120,107,132,110,129,121,113,118,113,123,126,116,23,122,91,130,128,160,163,118,97,120,155,104,120,119,137,176,119,119,134,129,118,111,109,77,140,119,99,119,122,184,147,144,89,121,111,121,135,90,94,134,126,120,93,112,103,98,117,65,92,121,166,124,123,115,122,173,118,120,104,118,106,65,83,71,96,121,104,117,133,132,117,101,100,121,126,124,121,116,121,87,131,119
117,123,120,127,122,135,118,120,103,114,115,121,110,94,69,121,159,121,122,102,107,76,70,121,126,130,123,109,128,160,110,120,96,121,125,156,155,197,145,119,126,120,120,125,139,75,97,121,112,117,116,108,106,117,111,121,121,119,115,84,94,52,82,121,99,123,129,132,128,154,167,119,123,117,109,96,110,94,47,121,106,124,127,111,102,139,139,120,151,119,115,112,121,180,157,119,111,124,122,137,139,118,125,120,116,117,115,112,100,96,82,121,132,127,131,120,113,181,239,118,120,126,126,124,133,163,112,120
135,130,136,153,137,106,151,119,111,123,126,134,126,234,174,119,126,124,122,114,106,91,90,121,117,119,114,109,105,82,148,119,102,114,114,97,92,62,105,121,160,126,124,114,104,75,121,121,116,126,126,127,127,129,178,119,111,121,124,113,109,123,109,121,112,122,121,111,112,96,119,120,142,121,118,111,102,130,123,121,97,116,117,116,121,79,85,121,142,118,117,102,125,93,132,119,115,127,124,142,133,149,139,119,124,120,134,156,123,71,55,122,141,123,118,109,123,154,151,120,117,125,116,106,111,153,143,119
118,114,125,121,113,101,114,120,129,119,110,114,127,109,83,120,130,132,139,116,115,32,154,119,129,131,131,150,192,239,164,119,108,114,117,129,117,70,106,121,116,116,114,110,108,108,121,120,140,130,137,140,137,124,162,119,111,118,113,106,86,122,84,121,120,120,116,118,111,108,146,120,122,123,118,110,115,106,116,121,117,118,123,76,87,120,125,120,114,125,116,121,125,155,164,119,96,116,121,114,125,187,126,120,134,116,117,108,123,127,126,120,114,124,122,147,130,133,161,119,116,124,121,120,119,126,142,119
102,120,118,109,109,82,75,121,142,114,122,131,139,89,111,121,114,122,115,108,110,115,142,120,117,123,117,140,115,70,102,120,106,118,125,112,114,148,112,120,132,118,108,102,134,102,106,121,124,123,121,110,108,162,90,121,105,120,120,131,127,131,83,120,117,121,119,103,117,120,142,120,117,117,119,119,110,117,114,121,124,118,101,73,112,115,147,119,121,127,144,161,144,42,111,121,133,125,122,110,120,195,162,120,111,119,102,97,99,92,110,120,88,123,137,130,115,96,119,121,198,122,122,99,102,99,150,119
112,126,122,117,128,112,101,121,114,120,118,129,136,117,114,120,121,115,116,121,121,43,152,120,132,128,127,127,131,163,134,120,116,117,119,110,107,94,63,121,117,122,117,109,110,88,72,122,123,122,117,124,121,109,106,120,125,125,136,118,116,141,145,119,120,122,120,115,125,78,84,122,143,121,124,128,119,153,129,119,111,122,117,108,119,110,108,120,113,124,121,119,121,134,116,121,136,125,123,128,117,92,160,122,131,120,122,109,119,107,148,119,108,124,126,119,126,127,151,119,103,132,130,132,121,145,123,119
151,121,121,142,130,167,153,119,112,119,118,121,117,96,121,121,119,122,121,118,129,147,135,120,126,118,115,114,99,108,140,119,107,120,121,118,99,96,27,122,125,129,132,135,146,241,197,119,129,118,114,100,113,90,109,120,127,119,115,140,125,104,118,120,144,128,130,137,125,205,175,119,110,118,116,128,111,92,72,121,123,121,122,99,93,112,150,119,127,119,122,117,140,92,131,120,125,124,116,108,114,118,127,120,125,129,127,128,116,114,130,120,116,124,125,129,139,95,96,120,108,121,122,105,121,187,188,119
154,128,127,148,131,63,129,120,100,118,116,127,114,101,126,120,98,122,121,105,107,131,85,121,142,126,121,141,155,136,92,121,111,121,132,150,113,86,87,121,115,121,120,125,118,121,112,120,99,117,118,176,130,120,143,119,144,123,122,118,108,88,70,120,142,126,125,127,110,102,143,119,115,126,120,99,113,117,100,120,111,116,115,125,103,119,106,121,98,119,126,156,157,130,143,119,146,128,122,113,112,102,115,120,112,116,117,114,114,58,51,121,124,128,129,113,118,165,154,120,114,122,126,140,131,79,126,120
126,117,114,105,104,131,76,121,128,127,121,117,114,115,113,120,81,108,112,118,104,98,118,121,150,115,106,83,90,114,118,120,107,126,136,169,127,107,98,120,120,125,126,129,113,157,133,120,109,118,117,112,113,85,128,120,116,119,116,142,118,141,107,121,121,118,112,113,120,81,170,119,117,123,127,114,131,129,119,120,112,117,118,112,130,114,87,121,113,121,111,109,112,140,132,119,143,124,129,127,99,92,110,120,108,117,121,117,135,98,116,120,121,124,117,113,105,116,132,119,117,116,115,102,100,170,98,120
140,115,120,117,131,108,145,120,114,116,116,123,134,115,84,121,117,126,127,92,107,98,120,120,110,115,109,103,131,80,119,120,115,126,135,217,181,179,114,121,143,123,114,115,87,117,124,121,121,121,132,138,114,120,113,120,111,118,118,119,125,122,128,120,128,120,123,137,113,113,90,121,104,120,114,94,102,97,114,121,124,120,120,185,135,50,91,121,119,122,121,120,113,185,171,119,133,126,121,112,120,102,74,121,113,112,116,116,114,110,138,120,108,123,117,131,120,98,84,122,134,119,121,123,106,68,120,121
123,124,119,114,123,195,127,120,116,122,125,154,117,90,69,122,114,120,117,82,108,86,103,121,128,122,117,84,104,222,159,119,123,121,123,126,130,109,110,121,112,126,126,137,119,85,131,121,152,118,120,102,103,154,134,119,117,125,120,115,116,120,99,121,114,122,113,116,116,103,116,121,109,121,129,122,82,87,51,122,155,131,130,137,153,241,207,118,120,123,121,129,103,81,91,121,117,123,131,181,128,127,117,119,105,122,116,100,106,112,139,120,139,107,101,41,84,168,116,120,126,131,138,161,144,126,154,119
111,119,114,105,101,122,108,121,122,122,124,139,157,78,107,120,143,115,119,107,102,135,105,121,119,119,98,22,69,80,127,120,111,126,141,224,176,166,49,121,125,121,116,91,114,114,146,119,102,122,127,161,105,125,146,119,112,119,117,111,123,118,114,121,125,119,106,107,127,81,113,121,105,127,128,91,84,105,119,120,119,116,112,111,121,138,166,119,126,119,123,139,139,170,121,120,114,126,120,111,104,90,97,121,122,115,120,116,123,102,139,120,132,129,121,93,96,119,117,120,103,109,113,122,102,62,106,120
137,134,124,81,99,159,165,119,111,118,116,116,135,131,134,120,110,119,115,110,129,127,57,122,109,107,112,105,101,115,115,120,152,126,120,108,121,78,132,120,113,124,125,143,135,131,95,121,123,125,133,153,135,125,120,121,94,119,110,85,88,100,100,120,165,127,132,176,173,87,135,120,115,120,114,106,130,213,149,120,117,122,126,107,104,90,98,121,107,108,106,136,145,33,37,122,157,138,130,114,111,213,185,119,105,123,111,70,121,112,94,121,110,113,129,139,140,112,139,119,117,124,123,121,122,107,80,122
140,120,119,111,108,128,111,120,122,115,109,103,106,133,137,119,116,125,134,141,123,127,73,120,115,120,115,146,128,120,143,119,142,124,132,113,104,114,117,120,128,119,113,88,101,112,103,120,113,124,128,107,116,93,150,120,112,120,119,116,117,126,90,121,129,125,125,166,141,87,96,121,96,119,117,121,115,134,156,119,124,117,113,108,94,86,106,121,106,131,140,211,145,81,112,121,155,120,125,120,121,186,165,119,119,126,124,122,134,145,129,120,109,121,112,116,108,117,125,120,113,124,142,154,134,101,124,120
142,122,120,110,132,160,128,120,111,118,117,109,107,54,63,122,119,121,118,155,109,128,201,119,124,128,136,138,144,146,109,121,119,123,117,109,107,67,96,121,142,130,128,154,184,121,130,120,111,119,125,139,122,125,103,120,136,120,118,112,97,107,104,121,127,124,117,119,110,123,162,120,120,117,117,120,114,116,104,120,112,120,114,111,99,103,117,120,118,118,121,111,122,117,144,120,108,127,126,137,138,119,93,121,126,111,116,110,89,111,105,120,119,130,130,144,191,136,114,121,126,124,121,118,116,157,146,120
136,123,119,106,113,133,112,121,113,110,116,131,141,95,114,121,114,121,121,139,118,110,135,120,119,121,119,99,104,98,127,120,129,128,124,152,124,139,121,120,134,120,123,118,145,146,64,122,125,125,120,110,113,96,96,121,114,123,126,158,136,117,134,119,113,120,119,106,111,105,124,120,140,113,120,126,128,83,90,121,128,129,128,132,132,140,228,118,107,125,124,124,116,118,127,120,113,126,123,117,122,105,112,121,119,119,121,157,145,85,101,121,119,118,111,106,101,140,148,120,110,125,137,127,108,94,133,120
132,116,114,110,103,128,131,120,126,126,120,111,109,101,90,121,112,117,115,115,115,68,153,119,102,117,116,134,121,148,99,121,113,121,125,135,113,95,104,121,113,130,129,138,111,109,160,120,132,105,109,99,102,196,140,120,161,132,123,121,119,99,110,120,104,121,122,135,121,120,173,119,102,120,116,130,139,61,117,121,134,121,126,126,130,184,138,120,105,119,122,129,132,105,52,122,135,124,117,120,141,161,184,119,122,121,121,114,121,119,144,119,111,121,124,119,110,105,125,120,133,122,115,114,103,91,107,121
108,112,120,123,128,122,151,119,118,123,122,81,94,129,71,121,124,121,114,120,114,167,131,120,98,138,146,153,165,113,181,119,174,104,101,105,102,101,151,120,102,122,117,102,115,112,61,121,116,124,120,131,140,104,76,121,93,116,125,199,150,64,109,121,137,117,120,102,99,89,56,122,123,125,116,120,114,114,113,120,117,120,118,110,126,54,101,120,132,127,130,111,121,242,149,119,116,120,113,119,123,98,100,121,112,118,113,100,105,103,113,120,117,120,136,147,124,143,163,119,121,125,124,135,126,83,133,120
118,118,111,103,128,124,77,121,120,118,122,117,103,94,128,120,107,126,119,109,107,124,148,120,134,111,117,119,117,121,132,120,113,120,120,118,135,131,127,120,119,127,124,117,114,108,119,120,100,121,118,114,99,111,134,119,144,112,118,127,145,155,95,121,109,118,116,106,118,100,109,120,122,128,127,123,120,137,145,120,115,118,118,111,108,141,95,121,115,123,125,141,150,122,127,119,127,129,128,128,142,55,77,121,115,127,128,113,94,147,146,120,120,118,107,91,117,63,2,123,124,122,125,105,107,98,136,120
117,124,119,92,90,105,115,120,128,121,122,179,159,150,112,120,118,122,123,119,113,85,127,120,113,121,113,96,104,157,97,121,117,128,121,156,139,114,105,121,121,115,128,117,112,143,95,121,113,104,100,100,115,106,117,119,112,126,122,120,110,116,102,120,123,121,115,106,99,83,112,121,114,122,121,144,159,112,111,120,126,122,119,128,112,114,132,121,124,122,130,108,118,111,150,120,123,126,127,170,156,138,163,119,110,128,131,139,101,66,152,120,167,121,131,128,175,242,241,117,106,116,115,128,113,86,40,122
114,122,121,112,104,99,125,121,122,127,122,123,134,124,143,120,116,117,116,118,125,107,101,121,114,126,129,127,116,143,140,120,144,118,122,135,140,158,176,119,109,122,119,130,128,76,107,120,117,119,112,93,100,111,160,120,116,121,123,145,142,102,93,121,131,124,127,149,119,114,139,120,111,115,112,103,116,73,118,120,114,116,113,98,123,132,118,120,106,123,128,153,167,108,85,121,140,116,113,122,113,113,113,121,119,117,120,133,108,140,140,119,99,125,126,118,100,96,105,120,112,110,113,129,122,189,113,120
146,126,114,101,86,135,145,119,117,117,126,139,159,160,93,120,115,121,119,114,107,104,138,120,117,123,122,125,120,118,145,119,107,117,112,110,125,110,111,120,92,108,110,124,118,43,117,119,184,127,125,126,156,241,87,121,103,119,124,121,107,94,94,120,121,126,123,117,119,103,111,120,114,117,119,147,126,82,139,120,132,123,126,126,155,238,165,119,123,118,103,89,98,97,97,121,126,127,140,166,144,117,139,120,117,119,114,96,111,94,159,119,115,126,126,135,149,190,102,120,136,113,116,112,108,134,124,120
101,116,107,99,114,115,165,119,117,123,130,105,112,107,145,120,110,127,121,133,116,112,116,121,143,114,116,109,112,113,83,121,115,122,120,142,130,119,125,120,122,120,125,102,110,116,127,119,83,121,122,140,127,18,153,120,172,126,121,119,129,241,141,119,109,118,117,112,113,79,59,121,118,120,121,122,114,102,143,120,107,121,111,136,138,47,91,121,138,110,123,119,115,186,195,118,115,116,122,145,129,106,91,121,119,125,119,119,119,64,149,119,131,126,125,125,150,219,207,119,125,121,120,117,121,134,121,120
110,118,111,119,114,99,112,120,116,121,127,123,106,99,153,120,122,121,121,125,152,188,113,120,110,120,119,118,113,102,112,120,124,121,120,125,116,124,164,119,127,123,118,115,102,84,107,121,126,126,135,145,151,224,224,118,130,117,122,119,139,132,79,121,119,123,113,88,87,97,129,120,97,117,117,114,116,27,107,121,145,118,117,115,115,170,185,118,107,124,115,100,105,103,104,121,119,125,127,123,112,119,138,119,89,118,116,160,152,123,115,121,151,120,119,114,107,97,125,119,104,118,121,167,119,112,73,121
127,122,128,120,116,110,149,119,103,119,114,130,157,165,132,119,170,122,125,123,126,183,134,120,108,118,113,140,121,105,128,119,112,116,119,117,125,109,138,120,118,132,138,133,136,212,164,119,134,122,119,103,115,208,152,120,119,119,114,127,125,91,88,121,123,119,121,109,120,101,113,121,124,126,124,115,123,129,152,120,113,119,120,131,120,91,141,120,135,122,121,96,118,146,92,121,110,119,122,122,126,120,114,120,114,127,124,126,105,141,145,119,145,121,121,115,140,174,150,119,120,122,117,92,118,103,115,120
104,118,119,144,119,112,106,121,111,120,121,123,110,102,121,121,145,122,121,107,130,132,162,120,126,130,131,158,147,136,115,120,119,124,124,101,118,213,141,119,86,126,118,161,126,80,84,121,177,122,129,119,114,73,128,120,108,120,117,114,119,94,120,120,111,118,115,107,125,141,157,119,119,120,124,119,124,110,125,120,100,131,129,131,139,113,133,120,168,115,112,106,110,193,155,120,112,119,119,117,127,113,100,120,113,125,116,97,112,111,99,120,119,118,118,115,117,72,92,121,112,114,110,106,114,76,60,122
125,124,123,126,118,112,120,120,114,122,122,117,121,119,117,120,93,126,124,113,118,61,134,120,194,129,131,119,129,216,198,119,110,118,113,131,125,107,87,121,116,128,129,116,119,95,122,121,119,115,118,143,123,100,90,121,113,116,116,116,117,112,110,120,131,127,116,127,116,122,134,120,97,122,131,136,129,106,181,118,149,121,119,118,119,115,129,120,110,118,109,89,119,161,132,119,118,127,137,159,116,97,127,120,114,118,113,111,126,104,128,119,121,122,121,115,116,119,138,120,124,124,126,153,132,130,142,120
129,122,122,121,120,126,121,120,114,121,118,115,112,134,133,119,128,123,114,107,120,112,119,120,119,120,122,133,114,119,112,121,118,121,134,131,118,118,104,121,116,118,112,111,115,122,131,119,125,118,114,100,111,105,123,120,114,118,114,135,150,130,138,120,129,128,136,121,120,119,124,121,124,126,121,148,133,119,106,121,112,114,114,111,118,112,129,120,123,117,113,113,113,120,52,121,122,126,126,134,119,133,183,118,120,125,121,125,123,120,142,120,126,122,110,84,97,113,140,120,117,121,131,112,147,126,108,120
110,107,107,138,116,116,122,121,121,125,117,106,114,119,119,120,122,130,139,126,123,118,123,121,132,123,124,166,129,125,119,119,111,109,109,113,119,118,109,120,121,125,127,147,145,122,109,120,123,124,117,110,116,114,90,121,123,124,123,123,122,123,135,120,118,123,123,122,117,114,97,121,121,117,107,114,124,123,117,121,114,113,125,119,120,126,126,120,121,129,122,118,117,118,110,120,117,117,118,123,122,127,120,120,116,118,118,114,121,120,127,120,123,126,124,117,124,134,94,120,119,119,123,125,122,118,122,120
116,119,113,111,119,118,115,120,129,131,140,115,130,123,122,120,120,117,113,118,121,121,114,120,117,117,121,122,115,118,131,119,126,123,120,115,119,121,123,120,121,125,124,122,120,118,106,120,117,120,117,118,121,120,119,119,118,121,123,119,123,122,119,121,118,121,121,123,119,114,112,120,123,122,120,117,117,116,104,119,111,111,114,112,119,127,107,115,123,126,119,98,120,116,134,116,118,120,130,130,118,121,122,115,123,123,119,115,122,122,122,107,119,124,122,118,120,118,119,100,123,121,119,114,121,118,114,99
113,115,117,122,116,112,91,97,119,122,119,122,120,121,110,94,119,121,119,124,121,121,125,96,119,120,126,123,121,123,123,98,120,122,120,129,128,120,117,104,128,123,121,120,124,117,125,109,114,120,116,121,124,121,118,113,117,121,118,120,112,118,116,115,127,123,125,122,122,120,123,116,123,121,120,123,123,125,123,117,111,113,120,128,121,120,115,116,121,126,126,119,121,127,122,114,118,120,118,121,119,119,116,180,125,125,124,124,122,120,121,190,118,116,117,120,121,121,123,157,116,117,116,123,120,119,122,106
123,127,125,115,121,121,119,86,123,123,120,123,124,121,124,63,120,122,122,117,122,120,119,91,119,121,122,122,120,119,118,118,120,121,123,120,119,121,120,167,120,120,120,122,121,121,125,162,129,125,124,123,122,125,129,175,118,118,121,121,121,121,117,172,119,121,121,122,121,121,123,177,121,124,123,121,121,122,120,110,119,116,118,121,122,121,100,88,121,119,119,120,123,123,126,117,121,123,123,122,120,121,121,117,121,123,121,121,119,119,119,90,120,121,122,122,123,117,125,112,118,122,121,123,119,119,110,151
122,120,122,121,119,121,115,164,118,122,120,128,121,120,125,169,118,120,123,121,122,120,120,165,122,121,121,120,120,122,122,135,121,122,121,122,121,121,121,121,115,118,117,120,122,124,120,114,123,120,122,121,122,118,111,111,119,120,122,124,121,122,121,111,121,123,122,129,121,123,119,111,123,122,123,116,121,119,126,112,120,123,118,120,120,121,121,112,121,119,120,121,120,120,120,113,118,122,123,123,120,123,121,114,118,119,119,122,122,115,122,114,128,124,122,124,121,121,127,115,121,123,119,117,121,120,120,116
119,120,124,120,122,122,123,115,118,118,121,120,121,119,124,114,121,122,117,117,118,120,116,116,122,126,131,128,128,134,123,116,121,120,121,121,120,123,122,117,120,120,120,121,123,118,123,117,121,123,121,122,123,122,139,118,119,121,118,121,122,121,121,119,121,124,121,120,119,123,121,103,121,122,120,124,120,118,122,87,121,121,120,124,121,121,126,77,121,122,122,121,122,121,120,100,121,122,123,120,120,119,131,145,122,123,122,123,121,122,124,169,120,118,121,121,122,121,124,138,116,119,117,121,120,122,118,125
119,121,121,122,120,121,119,120,121,123,121,122,121,115,127,118,121,120,120,122,122,120,126,118,122,122,120,122,122,121,122,117,120,123,121,121,120,120,120,117,119,121,120,122,121,120,121,117,121,123,122,124,124,120,125,116,118,118,120,120,120,123,108,116,119,121,121,123,121,121,130,116,121,122,122,122,121,122,123,116,120,125,120,124,121,121,123,116,118,118,118,122,119,120,120,113,117,117,119,121,122,120,116,116,121,124,123,122,121,121,123,118,121,123,121,121,123,119,123,120,121,120,120,122,122,123,121,121
121,120,120,120,118,122,118,120,120,121,120,120,121,120,122,120,121,123,121,122,122,120,123,120,122,123,121,121,121,121,121,120,120,121,120,123,120,119,117,120,120,120,120,120,122,119,123,120,121,121,120,122,122,121,123,119,122,122,121,122,120,124,120,117,121,122,121,121,119,121,117,114,119,120,120,121,121,116,112,112,121,123,122,121,124,132,109,111,119,122,121,121,120,120,125,160,119,120,120,122,121,121,118,139,120,122,121,122,122,120,122,125,123,124,123,123,121,120,122,121,120,122,122,122,122,122,122,118
118,118,119,123,121,121,120,117,120,123,120,121,121,122,123,116,120,120,122,121,123,118,124,117,119,123,121,121,122,120,120,117,123,122,121,121,121,125,120,117,121,122,121,121,122,120,125,118,121,123,122,122,121,120,123,118,120,122,121,121,119,124,121,119,119,119,119,122,121,123,119,119,121,122,121,123,122,118,123,119,121,121,121,121,123,120,122,117,118,122,121,121,120,122,119,119,119,117,120,122,118,121,117,122,121,124,121,121,122,121,120,124,122,122,122,123,122,120,124,121,119,121,122,122,120,119,102,119
122,121,118,121,122,124,124,119,121,121,121,122,122,120,136,119,120,122,122,123,123,120,120,120,122,122,120,121,121,121,121,120,119,120,121,122,121,122,119,120,119,120,120,121,121,122,120,120,121,121,119,122,120,119,124,121,122,122,121,121,120,120,122,120,120,122,121,122,120,123,117,119,120,121,121,123,121,121,124,120,120,122,120,122,123,120,122,120,118,118,120,121,123,119,121,120,122,123,121,122,119,120,113,120,121,122,121,122,121,120,120,121,122,123,121,122,121,120,124,120,121,121,121,121,122,120,122,120
120,120,120,122,119,121,118,120,120,123,121,123,122,119,122,120,121,121,120,121,122,121,122,121,122,122,122,122,122,123,120,122,118,120,122,122,120,120,118,122,123,121,119,122,120,122,124,123,119,122,121,122,121,120,123,120,121,123,121,122,121,120,122,118,120,121,120,122,121,122,120,118,119,120,120,121,122,120,123,119,120,121,121,122,122,121,121,120,121,122,121,121,122,121,120,121,120,121,121,121,118,120,118,122,119,120,120,122,123,121,124,121,122,122,122,122,122,125,114,123,119,120,121,123,122,120,117,122
121,121,122,122,120,122,131,122,120,122,121,121,121,121,125,123,122,124,121,121,121,120,124,124,121,121,122,122,121,121,119,125,120,120,120,121,122,121,118,80,121,122,121,121,119,120,121,97,122,122,120,122,121,120,124,104,121,121,120,121,122,121,119,107,120,121,121,122,120,121,119,105,121,123,122,123,123,121,121,106,119,119,120,122,123,120,123,105,119,118,120,121,120,121,120,107,121,124,123,123,120,123,118,105,122,122,121,122,120,119,121,106,119,119,120,122,122,117,123,107,121,122,121,122,121,121,121,104
120,122,120,121,121,121,119,104,122,123,122,121,121,120,123,105,123,125,123,123,121,122,123,106,118,115,119,121,121,122,114,106,117,117,118,119,119,121,106,107,123,125,122,123,121,119,124,105,122,122,122,123,122,120,124,106,121,121,120,121,119,120,120,108,122,122,121,121,121,122,119,108,119,119,119,122,121,120,123,109,118,119,120,121,121,119,120,109,122,123,121,121,121,122,119,112,122,123,122,122,121,122,118,111,118,117,118,121,120,118,121,113,120,122,122,122,121,121,124,115,123,123,121,122,121,123,122,118
121,123,121,122,121,121,118,118,119,118,121,123,121,120,119,118,120,121,120,121,122,121,123,118,119,120,121,122,120,121,118,118,120,121,121,123,121,121,118,118,122,121,121,123,122,120,124,116,122,125,122,123,120,121,123,115,118,118,120,121,122,121,122,114,121,121,120,119,119,116,104,114,120,121,120,122,120,121,125,112,122,121,121,123,122,120,122,111,120,122,121,122,121,120,115,112,119,119,121,121,119,119,119,111,123,123,122,122,122,122,120,112,121,122,120,122,122,119,122,112,120,121,120,121,121,122,113,111
120,119,119,121,119,121,112,111,122,123,122,121,121,121,125,111,121,123,122,122,121,121,125,112,119,119,119,120,121,119,119,112,121,123,122,122,120,124,120,113,120,120,121,122,121,119,123,113,120,122,122,124,122,119,120,113,122,122,122,120,119,120,122,113,121,121,121,121,119,123,119,114,119,121,120,121,121,120,105,114,120,121,121,121,120,122,127,114,118,119,120,122,120,119,120,114,120,121,119,120,121,123,120,115,122,122,121,121,121,120,119,115,121,123,123,121,122,120,123,116,121,122,121,122,120,122,119,115
121,124,121,123,121,121,118,114,119,120,121,123,122,121,122,114,120,119,120,121,122,123,122,145,119,120,120,121,119,120,121,165,120,121,121,121,121,120,118,146,123,125,123,123,120,120,120,156,121,119,120,122,123,122,126,137,118,118,119,122,122,121,121,118,123,123,123,123,121,121,144,95,122,122,122,122,121,119,121,80,121,122,119,121,122,121,125,75,120,120,120,121,121,121,115,85,121,121,120,121,120,122,125,100,121,121,121,122,121,122,122,106,120,121,121,122,121,119,122,110,121,121,120,122,120,124,122,114
121,121,121,121,120,123,119,114,121,123,121,122,122,119,124,115,119,118,119,119,120,117,126,115,119,120,121,122,120,122,119,116,121,122,121,121,118,121,120,115,122,123,121,123,124,119,121,114,120,122,121,124,122,120,122,114,121,121,120,122,120,123,119,116,122,123,122,121,121,124,120,116,121,120,120,121,121,120,123,115,118,119,120,123,122,118,123,115,122,124,121,120,120,121,119,122,121,121,122,121,118,122,109,118,120,122,119,122,122,123,124,112,121,121,122,123,123,119,121,115,121,121,121,122,121,121,121,116
122,123,121,122,120,121,118,116,120,120,121,122,121,120,121,116,119,121,119,120,121,126,101,117,122,123,122,122,122,120,122,116,121,122,121,122,120,121,119,115,120,122,121,123,121,121,135,116,119,121,121,122,123,119,120,116,123,123,121,122,122,121,118,115,121,121,121,122,120,122,117,116,120,121,121,122,122,120,124,114,120,120,121,122,123,121,132,115,120,121,120,123,122,120,116,121,124,123,122,121,121,123,122,112,120,122,121,122,122,123,130,113,121,122,122,123,122,122,121,115,118,118,118,119,120,122,123,115
119,120,121,121,119,121,120,115,122,124,121,123,121,121,122,116,122,124,123,122,122,120,122,116,120,121,120,123,121,121,122,115,120,118,120,120,120,121,115,116,120,121,121,123,120,121,121,116,122,123,122,122,121,122,124,116,121,122,121,121,120,121,121,117,118,118,118,119,120,126,101,117,121,121,120,121,122,118,134,116,121,122,122,122,120,120,123,116,121,120,121,121,121,123,121,116,121,124,120,121,120,122,120,116,120,120,120,120,119,120,121,116,120,121,120,121,123,121,123,115,121,122,121,122,122,120,120,114
122,123,122,121,117,119,107,115,122,123,123,122,123,120,124,120,119,117,119,121,122,120,123,126,118,120,121,121,119,122,123,134,121,124,122,122,122,122,118,142,121,122,121,122,123,120,123,142,121,123,122,122,121,119,120,141,120,120,120,122,121,125,119,125,120,120,120,121,120,124,119,116,122,120,120,122,122,119,136,97,119,122,121,122,121,118,122,99,119,118,119,119,120,119,132,93,120,122,121,121,120,122,120,94,122,123,122,122,121,118,116,104,121,122,121,121,123,121,125,108,120,121,121,122,121,122,123,112
120,120,120,121,119,120,120,114,121,122,122,122,122,123,122,116,121,123,122,121,121,120,122,116,120,120,119,120,121,122,119,117,120,122,121,122,120,122,117,117,123,123,122,122,122,121,123,118,121,122,120,121,121,123,125,118,122,121,121,122,122,122,122,118,119,121,121,121,122,122,119,129,119,118,119,121,121,119,122,132,120,122,120,121,122,119,123,135,122,121,122,121,120,123,118,141,121,123,121,120,118,121,118,148,120,121,121,122,120,119,122,138,120,121,121,124,122,118,109,138,119,121,121,121,122,123,118,126
121,121,120,122,121,119,118,113,121,123,121,122,121,124,114,97,121,122,122,122,122,121,120,89,120,119,119,121,121,122,121,81,121,121,120,121,121,120,120,87,121,122,121,122,121,120,122,102,121,122,121,122,123,121,109,111,120,118,120,122,121,125,124,113,120,124,121,121,120,121,120,128,121,121,120,122,120,122,120,128,119,119,121,121,122,117,121,145,121,123,121,121,120,120,122,142,120,120,122,121,122,122,119,132,121,122,122,122,121,119,120,134,121,121,121,123,122,122,125,142,121,122,121,122,119,121,122,142
120,122,121,121,121,123,122,125,120,121,121,122,121,121,122,110,120,122,121,122,122,122,125,101,120,119,120,121,120,122,119,107,120,122,121,122,120,118,105,120,124,123,122,122,123,123,111,128,120,121,121,122,121,119,115,130,119,120,119,120,120,124,107,116,122,122,122,123,120,122,122,109,120,121,121,121,119,120,121,105,119,120,121,122,122,120,123,111,122,122,121,121,121,123,119,123,121,123,122,120,119,122,121,118,122,124,120,121,121,120,122,146,119,119,120,123,121,119,125,145,119,121,120,120,119,121,121,150
122,121,121,121,122,122,119,155,121,121,121,122,123,121,122,160,120,122,121,122,121,120,122,141,121,122,121,121,121,124,120,133,119,120,121,122,120,121,120,128,119,119,120,122,121,115,112,71,122,122,120,121,121,125,123,97,120,122,122,123,120,120,119,119,121,123,122,122,121,123,119,138,119,120,120,120,118,115,128,145,121,121,123,122,123,118,120,148,121,121,119,121,121,123,120,162,120,120,121,122,120,123,119,187,121,124,123,123,122,119,120,224,120,120,120,121,119,119,124,199,119,120,119,120,120,125,100,177
122,123,121,120,121,120,120,163,119,120,120,122,120,122,123,136,122,124,122,122,122,121,122,114,121,121,121,121,119,122,123,103,121,121,121,122,119,117,115,112,119,119,119,120,120,121,115,124,120,122,120,121,121,118,124,95,121,123,121,122,122,126,119,62,120,120,121,121,120,121,118,70,121,122,122,122,122,119,122,102,119,120,121,122,120,121,121,115,121,121,121,120,121,122,124,183,121,121,121,121,120,122,122,203,120,119,120,122,122,120,119,204,121,124,122,122,122,120,123,217,121,123,122,121,122,123,121,213
120,122,120,119,119,123,119,202,120,119,120,121,121,121,122,181,122,122,121,123,121,115,133,162,122,123,121,122,121,121,112,151,122,121,121,122,119,121,121,146,121,122,121,122,122,121,123,135,119,118,118,119,121,119,122,111,119,120,120,121,120,122,119,91,122,123,121,121,119,123,125,74,122,122,122,122,121,121,122,84,120,122,121,124,122,119,120,83,121,121,121,123,122,122,122,99,121,121,120,122,121,119,119,89,120,121,120,122,121,124,126,94,121,122,121,122,123,122,122,116,120,121,122,121,122,120,121,129
121,121,119,120,119,123,118,127,119,120,120,122,121,119,121,136,122,122,120,122,121,120,126,149,121,123,122,122,120,122,119,153,121,124,121,120,121,121,121,235,122,121,121,123,122,118,126,223,124,123,122,123,121,121,139,181,121,122,122,121,120,120,120,109,120,120,120,121,121,122,120,64,121,123,121,122,122,122,121,66,120,122,122,123,121,120,124,74,121,121,121,122,122,124,129,71,119,120,121,119,118,123,99,85,120,122,121,121,122,121,124,97,120,123,121,123,122,120,123,101,120,119,120,120,121,121,120,110
121,123,120,122,119,120,118,118,121,121,121,123,121,122,123,110,119,119,120,122,121,118,124,121,119,120,121,122,122,123,119,136,120,122,121,121,120,122,119,135,122,123,122,123,120,120,122,150,121,122,122,122,123,121,123,153,122,123,122,121,119,121,121,142,120,120,119,121,121,121,120,140,118,118,120,122,122,120,121,129,120,123,122,123,121,119,120,130,120,121,121,121,121,121,119,136,122,124,122,121,120,121,117,140,121,120,120,123,121,121,123,124,119,119,121,123,122,123,130,104,120,123,121,122,121,124,116,107
121,122,122,123,121,120,118,100,122,123,122,122,120,119,121,100,119,119,120,122,122,119,127,95,119,120,121,121,122,122,120,95,122,123,122,123,120,119,119,102,121,122,121,123,121,119,124,103,121,122,121,121,122,120,124,87,121,121,121,121,120,123,124,96,119,121,120,121,122,119,116,99,119,119,120,121,121,122,122,101,122,124,121,122,120,121,125,116,121,120,120,121,121,122,119,123,121,124,121,122,120,121,119,124,119,117,120,122,121,119,121,100,119,120,121,122,122,124,122,92,122,123,121,121,122,121,121,90
121,123,122,122,122,123,121,109,121,122,121,122,119,119,121,123,120,121,121,122,122,121,125,130,120,121,120,122,121,122,121,135,119,119,121,122,121,123,120,132,121,122,121,123,121,119,110,115,121,121,121,122,123,120,123,118,120,120,121,121,121,122,122,121,121,123,121,123,119,121,119,120,121,122,121,123,120,121,121,132,121,122,121,123,122,120,122,120,121,122,120,122,122,123,119,125,116,118,120,121,121,119,130,111,121,121,119,121,123,125,123,242,122,123,122,123,122,119,123,241,123,122,123,121,121,120,122,242
121,122,119,120,120,121,121,162,120,120,121,123,121,121,124,116,119,120,120,122,122,122,129,109,121,122,121,122,122,121,122,103,120,121,121,121,119,121,119,101,118,119,120,122,121,121,122,92,122,124,122,121,122,122,120,95,122,123,122,122,122,125,128,110,121,121,122,121,121,123,119,117,120,121,120,121,121,121,121,114,121,123,121,121,122,119,132,105,120,121,122,121,119,121,121,61,120,122,121,121,119,121,120,50,122,123,123,123,121,118,121,53,120,120,121,123,122,121,119,55,120,120,121,121,122,123,125,40
120,123,122,121,121,123,118,58,120,119,119,123,122,121,121,77,121,122,122,121,120,122,123,91,119,121,121,122,121,121,122,92,119,120,122,121,119,127,109,94,121,123,121,122,122,119,123,86,122,122,121,122,122,120,124,85,121,122,121,122,122,121,120,121,120,121,121,123,120,121,120,139,122,122,122,120,121,120,124,143,120,121,119,120,122,121,125,145,119,119,121,122,120,120,121,161,121,121,121,120,121,122,117,172,121,122,121,122,121,121,123,174,121,121,121,122,122,119,122,153,121,122,121,122,121,120,119,132
121,121,122,121,120,125,119,122,120,120,120,121,121,122,122,123,119,123,121,122,122,119,123,137,120,119,120,122,122,120,123,138,120,122,121,120,119,121,116,132,122,123,122,123,121,122,133,138,120,121,121,122,123,119,121,138,121,123,120,121,123,121,121,133,119,119,120,121,120,121,120,132,120,122,122,123,121,118,137,128,121,121,120,122,122,119,123,135,121,121,121,121,121,123,123,119,121,122,122,122,121,121,120,116,120,119,119,122,122,120,122,188,120,123,121,121,120,121,122,194,121,122,121,120,119,122,120,149
121,122,121,123,119,120,119,147,119,119,120,122,120,115,127,141,121,123,120,121,121,122,134,239,121,122,124,122,121,122,119,218,119,120,119,122,122,121,118,147,120,121,121,122,121,120,121,116,121,121,122,122,121,121,121,104,121,122,121,121,121,121,121,105,121,122,121,123,121,122,118,113,120,122,121,122,121,122,127,122,120,121,120,122,122,120,124,151,120,121,122,121,121,121,119,150,121,122,120,121,120,124,121,125,122,122,122,123,120,120,123,126,121,123,121,120,122,121,123,125,121,121,121,121,122,120,121,119
119,119,120,121,120,121,112,114,121,124,121,121,120,121,121,107,120,121,122,121,121,119,122,91,121,122,121,121,120,120,120,81,122,121,121,121,121,122,120,104,120,124,122,123,120,122,122,100,119,119,120,122,121,120,121,99,121,123,124,123,121,121,121,113,120,120,119,122,119,119,120,114,121,123,122,122,123,121,123,108,120,122,122,122,122,121,121,100,121,122,121,122,121,122,121,111,119,119,120,122,119,121,119,119,121,121,121,123,123,125,120,122,120,121,121,121,123,125,99,123,120,122,121,121,121,125,123,122
119,120,121,123,120,121,121,109,121,121,120,122,121,121,121,96,122,122,120,121,122,120,122,95,121,122,121,121,122,122,119,223,121,124,121,122,122,123,120,183,119,118,120,122,119,121,120,130,120,120,120,121,121,120,124,112,122,123,121,120,121,123,123,108,121,122,121,120,121,121,120,116,120,123,122,123,121,121,121,113,121,122,122,123,122,120,124,124,120,120,119,121,121,122,122,105,120,120,120,120,119,122,120,94,122,123,122,123,124,125,134,107,122,124,121,121,121,121,126,105,119,120,121,122,121,122,122,97
118,119,121,121,120,122,119,102,122,123,122,123,122,122,121,107,123,124,122,123,123,120,123,110,117,116,118,120,121,121,121,111,118,120,120,120,120,122,119,113,123,123,121,121,122,121,123,116,120,121,121,121,122,119,123,112,120,121,120,122,121,124,120,111,120,121,120,120,121,124,99,116,121,122,122,121,121,119,124,117,120,121,120,121,121,120,125,119,119,119,119,120,121,121,119,116,120,120,120,120,119,125,120,113,122,124,121,121,121,119,123,97,121,124,121,121,122,120,122,88,121,122,123,121,120,118,121,89
118,119,118,120,119,119,104,103,119,120,120,121,121,120,125,118,122,123,122,123,123,121,124,132,121,122,122,122,121,121,121,128,121,122,120,121,119,122,118,131,121,122,121,122,120,120,121,115,120,121,120,121,122,119,123,115,120,122,122,123,122,122,119,125,118,118,120,121,122,123,122,126,120,121,120,122,121,120,106,121,121,123,122,122,122,120,121,121,122,122,121,121,122,120,121,121,119,120,121,121,121,122,120,110,119,121,120,121,120,121,120,109,121,121,121,121,120,119,123,112,120,122,120,121,122,127,98,116
120,122,122,121,120,122,125,117,122,123,120,121,121,120,122,116,119,118,121,123,121,120,125,116,120,120,121,122,122,125,131,117,120,121,120,121,119,122,119,121,122,120,121,122,120,121,123,127,121,123,122,122,124,121,122,129,121,121,120,121,121,122,121,139,120,121,121,121,120,121,120,129,121,121,121,122,122,119,121,123,120,122,121,123,122,119,114,119,120,121,120,120,120,122,119,123,121,122,123,123,121,121,120,129,121,122,121,122,122,122,120,119,120,121,122,123,121,120,121,114,121,121,119,119,120,120,128,122
121,122,121,120,119,119,115,126,120,121,121,123,123,123,123,110,122,122,122,122,122,118,124,94,121,122,120,121,120,122,122,92,120,121,121,121,121,121,120,95,120,121,120,120,121,121,122,104,122,123,121,123,121,120,123,117,121,123,123,122,121,121,120,130,120,119,119,121,121,122,120,127,119,120,119,120,120,120,120,117,122,122,122,121,120,120,123,112,121,123,122,122,123,121,120,116,119,120,120,121,121,127,98,134,122,122,121,123,120,122,124,138,119,120,120,122,123,120,124,129,121,122,121,120,119,120,121,126
120,120,120,121,121,121,119,115,120,122,121,121,121,120,121,119,120,122,121,123,122,121,124,124,121,121,122,122,121,120,119,130,121,122,120,121,122,121,119,135,121,122,121,121,120,121,122,128,121,122,121,123,122,120,124,121,119,120,121,121,120,122,118,121,121,122,122,120,119,120,124,123,120,123,120,122,123,121,117,124,119,118,120,122,121,118,122,112,121,122,121,121,121,122,120,108,121,122,121,122,121,122,120,109,120,123,121,122,121,121,120,105,121,122,121,123,120,121,125,110,119,120,120,121,120,124,106,119
121,121,121,121,121,122,123,132,120,120,120,122,122,120,123,128,120,123,122,122,122,121,121,185,120,121,122,122,121,121,119,156,122,121,122,122,120,122,122,127,121,122,121,122,120,120,119,112,121,123,121,121,123,120,124,104,121,122,122,121,121,124,123,107,119,120,119,120,119,118,107,99,119,119,119,122,122,119,122,103,122,123,122,122,122,122,122,111,121,122,121,121,121,120,121,108,121,122,120,121,120,124,119,107,120,121,121,123,122,121,122,116,121,122,122,122,121,119,125,120,120,119,122,122,121,122,122,123
120,122,120,121,120,122,120,116,118,119,120,122,120,120,119,115,121,122,122,122,119,119,123,110,120,121,121,122,121,123,121,113,122,122,121,121,122,120,118,119,121,122,122,123,121,119,120,118,120,122,121,122,122,122,124,125,119,119,120,122,122,121,121,123,121,123,121,121,119,122,111,130,119,121,121,121,123,122,122,136,120,120,120,121,120,123,97,136,120,125,122,121,120,121,123,135,123,122,121,123,122,123,125,132,120,121,120,121,121,120,121,120,121,123,122,122,122,121,118,122,121,120,120,122,121,123,121,120
119,121,121,121,119,120,116,120,118,119,120,122,120,121,123,121,122,122,121,122,123,120,124,118,122,122,120,121,120,122,121,120,120,121,121,122,120,122,119,117,119,120,120,122,123,121,121,115,121,122,120,121,122,121,123,116,121,122,121,121,120,122,123,116,121,122,121,122,121,120,122,125,121,122,122,123,121,120,124,128,120,122,122,123,125,119,121,130,119,119,120,121,121,123,123,129,120,121,121,122,121,123,118,137,122,125,123,123,122,121,122,185,120,120,121,123,122,120,121,152,119,120,120,122,122,122,124,128
121,120,120,121,121,122,119,111,120,122,120,121,119,120,113,105,121,122,122,122,122,119,124,99,121,123,121,120,121,121,120,115,120,122,121,123,121,122,121,131,120,120,120,121,121,119,120,142,119,120,119,120,122,119,120,200,120,122,121,121,121,120,120,223,121,121,121,120,122,122,110,200,122,123,121,121,120,121,122,165,122,122,121,123,122,122,125,129,121,121,120,121,119,122,119,112,119,122,121,121,121,122,122,101,119,120,120,122,122,118,121,99,121,123,122,122,121,121,124,97,120,122,122,122,122,123,129,104
121,120,119,121,120,121,117,105,119,120,120,121,122,121,122,108,120,118,121,123,122,121,126,100,120,124,120,122,120,121,120,92,121,120,121,120,119,121,117,89,121,121,121,121,122,119,120,98,121,123,121,122,121,118,120,104,120,120,120,122,122,123,122,105,120,121,120,121,121,122,120,102,121,121,120,121,122,120,122,104,121,122,120,122,121,122,121,101,121,122,122,123,121,122,123,112,120,121,121,122,119,121,118,109,119,119,120,121,122,122,122,113,121,123,121,122,122,119,123,120,121,121,121,121,121,121,121,121
119,121,121,121,121,121,121,104,121,121,120,123,122,121,121,110,121,123,122,122,121,119,122,112,122,121,121,122,120,124,121,124,119,120,119,121,117,121,119,118,121,120,121,121,122,120,132,118,121,123,122,121,123,120,123,216,121,123,121,122,120,124,124,188,119,119,121,121,121,122,120,155,118,120,121,122,121,121,122,126,121,122,120,121,121,123,99,111,121,122,121,123,122,122,123,106,121,121,121,121,121,121,119,103,119,119,120,121,120,120,122,93,119,119,119,122,121,122,122,102,120,122,122,121,121,121,121,104
122,123,122,122,119,122,120,120,121,122,122,122,120,120,122,116,120,121,120,123,121,119,120,125,121,122,121,121,121,123,119,123,121,123,122,122,121,121,118,133,122,121,121,123,122,122,127,140,120,123,121,123,122,118,119,139,120,120,120,121,120,123,130,136,121,120,122,121,121,123,120,126,119,121,121,123,121,122,122,123,120,121,121,121,123,121,122,109,121,122,121,122,122,122,121,106,121,122,121,121,121,121,117,97,120,121,120,121,120,120,123,102,118,119,120,122,122,121,122,106,121,123,120,122,122,122,123,108
121,122,121,122,121,123,119,101,120,121,121,122,120,120,124,108,122,120,120,121,121,119,125,106,119,122,120,121,121,122,120,104,120,120,121,121,121,121,117,107,120,122,121,122,121,119,120,109,123,123,122,123,124,120,123,122,122,121,120,121,121,122,121,124,120,121,120,122,120,120,117,128,121,123,121,123,120,119,120,125,120,119,120,123,124,123,122,124,121,122,121,120,119,121,124,126,121,122,122,122,120,123,119,127,120,122,121,121,122,118,122,126,119,120,120,121,121,120,120,130,119,119,120,122,121,124,121,128
119,121,120,121,119,117,128,116,121,121,120,122,121,121,121,122,120,122,122,122,122,119,122,119,120,121,120,121,120,121,121,114,119,119,119,121,118,121,116,113,121,122,121,121,123,122,124,110,121,122,122,121,122,121,123,111,121,122,120,120,121,124,120,109,120,120,121,121,121,120,118,108,119,122,121,122,122,122,124,124,120,120,120,124,121,120,124,121,121,122,121,121,121,119,132,126,120,122,122,122,119,122,114,113,122,123,120,121,120,121,126,120,120,121,120,122,123,118,123,119,120,123,121,122,122,122,121,122
120,120,121,121,122,122,121,115,122,121,122,123,118,121,120,117,121,123,120,122,122,125,131,120,118,119,120,120,121,120,119,112,122,122,121,122,122,122,121,113,121,122,122,123,121,120,122,106,121,122,122,123,123,121,124,105,120,122,122,122,120,120,119,109,121,122,120,121,121,123,118,120,120,122,121,120,122,122,124,132,119,118,121,122,120,120,120,128,120,120,119,121,121,121,111,125,120,122,121,122,120,122,118,119,121,121,120,123,121,121,125,117,121,122,123,121,121,120,124,116,120,120,119,121,121,122,120,128
120,122,122,121,120,121,118,121,121,121,120,122,121,121,122,121,119,120,120,122,121,121,122,119,120,120,121,121,121,121,121,115,121,122,121,121,120,122,119,114,121,123,121,123,120,121,121,121,121,122,121,121,122,120,124,127,121,123,122,122,121,117,145,127,120,121,120,121,120,119,129,122,121,122,121,122,122,120,123,121,121,121,121,122,122,120,126,121,120,121,120,122,119,120,121,118,121,122,121,122,121,123,120,124,122,121,119,121,123,121,121,124,119,119,120,123,123,120,122,123,121,122,122,123,121,122,120,127
122,123,121,122,120,121,118,123,120,121,121,122,120,121,123,128,121,121,121,123,123,121,123,131,121,123,122,122,121,121,121,125,119,118,117,120,121,120,119,125,121,119,120,122,121,123,131,116,122,124,123,123,123,120,124,117,121,123,121,120,120,121,120,109,121,122,121,123,120,121,115,107,121,122,121,122,122,121,122,115,119,118,119,122,120,119,117,117,120,120,120,123,121,122,121,119,121,123,122,121,119,120,120,126,121,122,120,121,119,120,124,124,121,121,121,123,123,122,125,114,119,118,120,121,121,122,118,117
120,120,120,121,119,120,123,118,120,122,121,121,122,122,117,117,122,123,123,124,123,120,130,116,122,120,121,122,121,121,120,114,121,122,120,122,121,122,123,119,120,121,122,123,119,118,119,124,120,120,120,122,121,119,125,123,122,121,121,122,122,123,122,122,120,123,120,120,121,122,121,119,121,121,122,123,121,123,122,118,121,122,121,122,122,120,123,120,121,122,121,122,120,121,120,120,120,120,121,122,121,121,119,121,121,121,121,122,122,122,133,118,120,120,120,122,123,124,125,119,122,124,122,122,121,120,119,120
119,118,120,122,121,121,122,126,120,121,120,121,122,122,121,122,120,122,121,121,120,121,123,116,121,122,121,123,122,120,118,120,121,121,121,121,118,120,119,124,120,121,121,122,121,120,122,123,121,122,120,122,123,119,122,146,120,121,121,121,120,124,122,167,121,123,121,121,120,122,120,157,119,118,119,120,120,116,128,137,119,120,120,121,122,123,117,125,122,123,121,122,121,122,122,114,121,123,121,121,120,121,121,107,121,120,121,123,121,121,124,99,120,122,120,122,122,121,123,104,121,120,120,121,121,121,122,105
122,123,121,122,120,123,119,112,121,121,122,122,122,122,120,116,122,122,120,122,122,122,121,122,119,120,121,123,121,120,120,122,120,121,120,121,119,119,105,123,122,121,121,122,123,121,124,115,120,121,121,123,121,120,124,112,121,122,121,120,121,123,117,112,120,121,121,121,120,122,118,120,120,121,121,122,122,122,123,116,120,121,120,123,123,121,123,121,121,121,121,121,121,122,120,123,119,120,121,122,121,121,120,121,120,121,120,122,122,120,122,117,121,121,121,121,121,121,124,119,120,121,121,121,122,121,119,118
120,123,121,122,121,121,118,121,121,122,121,123,120,121,122,121,121,123,122,122,121,120,121,128,120,119,118,122,122,122,110,124,119,121,121,120,121,121,120,123,121,121,121,121,120,123,123,128,121,122,122,122,122,119,122,126,121,122,121,123,121,123,120,129,119,120,122,122,122,122,119,132,120,120,120,123,121,125,129,150,120,122,121,120,121,120,111,137,121,123,122,121,121,121,120,133,120,121,120,122,121,121,121,115,121,122,121,122,121,123,124,108,119,121,121,123,122,119,122,103,120,120,120,122,120,120,118,101
121,123,121,120,120,118,119,103,119,121,121,121,121,121,124,109,121,121,122,121,121,121,124,112,121,121,121,122,120,120,123,119,119,121,121,123,121,121,121,119,122,122,121,122,122,121,120,117,119,121,121,122,123,120,111,115,118,119,119,120,120,122,122,119,121,122,122,123,121,121,119,116,121,123,121,121,121,121,122,118,121,123,121,121,122,120,125,121,120,120,119,121,122,121,118,113,120,121,120,121,120,121,126,116,122,124,122,121,120,120,120,112,121,122,121,123,122,119,126,120,119,121,121,121,120,120,121,127
121,121,121,121,120,123,120,125,120,123,122,121,122,121,122,114,120,121,122,124,121,118,122,117,119,121,120,122,122,123,120,117,119,120,120,121,120,121,108,120,121,122,121,123,121,119,123,113,122,122,121,122,120,120,123,121,119,119,119,121,121,122,122,117,120,120,120,121,121,122,119,119,121,120,121,122,123,120,122,119,122,124,121,122,122,120,123,124,123,122,123,123,123,127,128,117,123,122,120,122,118,122,120,115,121,123,122,123,119,121,122,110,119,118,119,121,122,120,123,112,119,122,122,121,121,118,103,123
121,123,121,122,120,122,120,126,122,124,121,123,122,123,123,127,119,118,119,122,121,122,123,123,120,122,121,121,121,122,121,118,121,124,122,121,121,121,119,117,121,121,120,121,122,119,122,121,120,121,121,122,121,121,121,125,120,121,121,122,121,121,121,121,118,120,120,121,121,122,120,126,120,121,121,121,122,120,120,123,120,121,121,122,122,122,123,120,120,121,119,121,122,122,118,123,122,123,123,123,119,120,120,117,120,120,120,121,121,120,119,119,119,121,121,122,123,120,124,123,120,123,122,122,120,121,121,117
121,122,122,121,121,122,121,117,120,122,122,122,120,118,119,124,120,122,121,122,121,121,123,119,121,122,121,121,120,122,122,120,120,120,120,122,121,122,118,117,120,121,120,122,121,120,122,119,121,122,121,121,122,121,123,127,119,121,121,122,120,119,119,123,121,122,121,121,119,120,120,126,121,122,120,122,121,122,121,126,121,123,122,122,122,121,124,130,119,119,120,122,120,118,106,130,117,118,119,119,118,119,129,133,120,125,121,120,120,124,101,133,121,122,121,121,123,120,124,115,120,120,121,121,121,122,120,114
121,121,120,121,120,121,120,111,121,121,121,121,120,120,121,111,120,121,120,122,122,117,104,111,121,123,121,123,122,123,120,108,121,121,120,121,119,121,119,110,120,122,121,121,122,119,120,100,119,120,124,122,121,121,122,107,119,121,119,122,120,120,119,116,121,120,121,122,121,120,113,125,120,122,122,122,121,120,121,117,121,122,120,122,121,120,123,121,121,122,121,123,121,121,121,119,122,124,121,121,121,121,120,125,119,121,121,120,122,123,122,124,118,116,119,122,122,120,125,118,123,123,122,121,121,121,122,119
121,122,122,122,120,122,119,122,120,122,120,122,121,122,122,122,121,123,121,123,122,120,121,113,121,122,121,121,121,120,120,126,120,120,120,122,120,121,120,118,119,119,121,122,119,112,141,119,123,124,121,122,122,123,126,121,120,122,120,122,121,121,120,115,117,119,119,119,119,123,117,116,122,123,122,122,124,122,121,121,121,120,120,122,120,120,124,110,122,120,119,121,121,121,122,116,120,121,121,121,121,122,120,104,120,122,121,121,121,119,122,104,120,122,121,122,122,116,122,98,121,122,121,122,120,122,120,117
121,122,121,122,121,120,119,115,120,121,121,122,121,119,121,120,119,119,119,121,121,120,124,118,119,122,120,120,119,124,104,122,115,119,119,121,124,129,116,103,129,125,125,119,120,134,133,62,119,123,121,124,126,118,118,0,118,119,119,122,122,122,109,0,111,117,118,119,119,122,128,0,118,121,117,116,114,122,112,150,136,129,133,149,138,137,135,242,121,126,119,113,114,121,116,242,110,109,109,108,116,116,97,0,118,128,136,148,127,106,110,0,149,131,126,137,128,136,155,0,116,123,124,146,129,123,128,0
110,118,118,115,123,126,122,0,117,113,115,106,110,112,117,0,105,120,118,153,126,116,115,0,129,133,125,118,114,122,122,46,139,125,121,118,115,122,130,197,103,102,115,121,117,120,110,241,120,130,123,119,122,144,100,241,120,127,127,155,145,145,100,240,126,122,124,122,92,101,140,242,124,131,128,128,124,104,102,241,135,120,119,136,122,106,85,240,106,117,120,127,118,104,137,242,101,119,118,130,129,99,108,223,129,128,130,118,116,59,101,1,131,126,128,130,113,68,156,0,127,124,121,125,141,146,122,0
123,122,121,121,118,77,131,0,115,119,119,103,118,110,108,200,113,132,131,130,136,226,118,240,135,117,112,118,123,237,113,138,130,114,120,124,120,203,115,113,101,122,121,118,118,141,146,159,122,126,124,137,140,118,141,187,86,119,120,111,107,85,119,171,156,121,122,121,127,100,169,126,141,126,127,116,107,115,153,110,89,124,122,132,126,107,118,107,152,123,125,124,121,109,132,62,112,128,131,141,109,112,151,0,151,120,118,116,119,119,120,0,117,124,130,163,120,120,136,0,136,126,121,122,119,119,110,0
112,123,122,123,126,132,127,0,123,123,120,122,119,118,122,0,116,114,109,112,122,109,115,242,132,126,123,123,122,117,126,241,108,124,119,112,116,121,108,240,126,114,122,130,134,131,134,241,119,119,115,82,102,111,122,241,119,125,119,138,130,109,116,240,109,123,127,129,117,125,125,66,137,125,111,121,129,126,130,0,127,115,112,121,129,110,109,0,117,124,111,124,109,119,142,0,108,120,84,121,122,121,113,0,119,121,83,121,116,110,81,0,121,119,90,125,124,124,105,0,107,119,40,122,112,111,110,45
153,127,0,115,109,121,172,168,110,119,0,124,122,121,107,209,121,119,0,126,127,116,132,218,117,118,0,123,119,118,126,191,120,122,22,125,120,125,118,162,117,121,66,123,118,111,70,178,85,116,105,124,121,123,146,164,156,126,170,123,124,120,99,215,106,116,186,100,98,117,128,241,118,125,183,125,136,129,151,240,105,118,133,119,121,118,114,225,125,125,144,133,143,124,72,98,115,121,154,135,118,122,101,16,105,120,161,124,142,142,116,0,142,128,115,124,123,113,118,0,120,123,154,125,139,128,151,0
114,115,127,128,117,121,128,0,119,118,117,121,120,119,120,0,114,120,78,141,142,108,129,0,124,138,111,131,117,91,120,27,142,120,149,121,122,129,158,229,98,113,121,111,106,120,127,241,143,127,111,118,114,118,111,241,102,115,121,129,124,122,116,242,118,118,128,130,130,128,167,242,115,124,118,122,119,135,41,155,130,134,94,124,123,119,136,55,109,115,112,106,116,115,95,1,116,119,133,93,111,120,125,0,115,115,121,124,134,116,112,0,152,129,97,129,125,100,96,0,117,126,116,125,133,135,127,26
113,120,156,119,116,120,105,123,116,110,121,118,113,112,124,178,125,126,84,119,115,115,120,228,107,118,120,113,120,121,91,211,135,125,147,117,121,122,129,218,121,125,138,129,151,118,136,242,97,116,106,119,115,109,108,240,117,121,117,120,119,124,102,241,129,122,124,128,123,122,123,193,123,125,133,121,128,133,101,66,118,122,124,122,122,117,132,0,136,126,110,129,134,149,128,0,121,120,121,129,128,120,126,0,119,125,120,120,125,124,117,0,99,115,115,121,117,113,135,46,152,128,114,119,130,122,112,100
114,123,135,119,116,118,148,143,119,111,132,117,135,121,128,161,129,121,103,122,115,124,108,134,133,130,82,122,120,123,114,158,108,117,116,136,108,117,102,203,121,129,104,154,103,113,109,209,132,125,93,123,132,129,218,155,112,123,111,116,125,123,120,96,103,118,145,115,128,128,105,69,138,128,121,119,102,115,128,76,114,120,123,122,114,114,123,73,123,120,137,118,118,121,120,57,122,126,157,150,152,128,147,35,95,116,148,117,116,124,75,44,149,127,95,108,127,125,132,40,110,113,96,117,118,107,127,49
129,128,119,166,125,61,110,129,112,119,125,119,124,118,114,108,131,125,86,125,123,116,137,86,112,110,139,111,107,110,68,108,141,123,132,123,98,131,135,156,102,122,128,151,133,116,122,180,122,127,108,115,109,114,131,190,121,117,105,127,119,117,106,205,111,113,146,113,118,120,117,185,106,119,131,113,124,126,97,140,124,124,103,123,136,147,99,121,140,129,117,124,115,123,121,152,129,123,125,120,120,118,133,151,123,119,121,120,115,109,129,154,100,112,95,122,127,119,114,181,137,125,121,127,141,128,112,185
119,125,143,145,146,129,88,190,119,120,131,118,117,118,117,171,90,115,115,100,113,125,93,121,125,132,123,129,148,133,134,103,120,116,117,126,125,120,114,86,119,114,101,116,119,116,114,60,124,127,87,135,117,119,148,53,112,127,98,122,118,123,117,74,119,120,130,125,140,132,148,68,134,127,111,123,126,130,141,79,118,120,102,137,115,122,150,127,103,115,133,123,160,181,116,202,142,123,141,106,113,126,85,231,114,122,129,144,142,117,142,200,136,133,116,129,113,116,101,145,116,118,124,119,134,120,116,102
125,115,150,117,115,113,71,55,113,124,117,124,120,119,121,64,111,121,109,116,114,132,117,83,158,134,138,137,149,150,159,124,142,137,156,118,113,112,102,132,109,114,138,117,121,126,99,153,113,109,82,120,120,123,133,163,111,121,112,116,117,122,125,138,126,128,120,144,138,128,181,105,139,126,110,125,133,149,90,95,90,119,106,118,120,123,149,85,136,118,106,121,127,111,109,115,106,120,152,98,112,86,115,142,110,120,135,115,101,112,90,154,116,114,117,108,119,129,122,143,137,123,86,121,116,130,125,134
133,130,112,123,135,120,117,121,113,123,118,120,118,111,99,121,102,115,103,119,122,121,115,101,104,109,79,141,180,144,119,68,132,128,117,126,154,129,166,48,128,123,119,122,124,124,154,45,108,118,95,99,115,124,77,68,134,127,111,123,128,125,114,127,134,125,136,121,134,122,119,153,109,122,119,117,89,113,130,162,123,118,114,110,125,151,109,185,107,113,106,112,120,122,112,203,114,127,162,120,120,110,110,187,117,119,154,118,120,117,115,136,118,117,142,119,118,127,128,89,118,120,119,121,109,119,126,74
117,121,132,119,108,103,110,67,124,130,85,125,125,117,131,113,119,122,121,110,110,127,129,193,136,120,130,123,132,132,119,221,100,116,143,117,120,115,119,196,127,124,92,126,117,106,128,161,105,116,91,119,109,123,106,75,122,124,113,132,120,114,130,33,133,128,136,114,115,113,102,9,108,111,130,118,123,119,121,8,120,118,119,123,142,139,112,22,109,122,89,120,112,139,125,65,126,125,117,135,128,129,132,107,111,114,133,127,120,142,115,144,150,127,111,121,114,137,132,186,120,122,107,119,115,121,116,206
110,124,136,120,121,116,113,172,110,113,125,124,122,109,113,147,117,119,126,122,130,124,122,109,117,126,116,119,126,110,112,79,136,129,128,124,112,101,146,68,120,122,128,119,114,122,111,81,114,121,109,116,114,127,115,105,107,111,118,124,123,120,119,112,142,127,140,122,116,123,132,117,105,119,119,94,97,109,124,106,129,126,110,133,115,113,161,117,116,123,98,119,110,122,134,124,140,125,121,122,121,111,123,155,112,117,136,120,120,116,132,160,106,115,137,93,100,132,88,153,139,128,120,124,121,125,124,140
87,105,133,114,107,118,113,133,137,126,106,115,103,107,107,107,130,127,97,119,111,128,116,108,125,126,122,133,126,114,177,152,96,112,154,118,119,104,113,168,120,116,138,113,114,118,108,158,124,129,114,124,113,156,88,149,113,122,118,120,120,125,123,115,130,125,134,118,124,111,144,76,111,118,111,119,117,120,102,68,119,117,115,121,122,126,161,68,98,117,125,136,137,129,124,96,143,131,140,110,127,125,92,119,135,130,133,126,153,125,108,170,124,117,98,122,124,134,125,195,96,112,103,117,114,123,115,183
121,124,118,128,137,117,126,176,116,123,134,119,114,120,82,149,123,120,85,122,121,133,131,111,149,127,106,109,81,117,130,84,157,129,114,136,138,108,159,98,106,120,126,121,116,116,106,84,129,124,97,133,126,134,130,90,114,116,122,121,132,125,111,94,121,121,119,131,139,113,154,80,122,122,109,109,108,126,108,74,133,132,105,122,117,127,114,66,108,117,118,116,119,119,96,86,112,109,139,116,114,115,96,114,119,121,138,120,110,123,111,136,106,122,122,121,127,121,157,142,138,129,118,125,120,108,129,170
136,122,136,106,98,103,111,146,106,119,146,122,118,112,112,136,119,119,95,129,136,128,125,108,121,124,111,117,93,123,88,96,122,128,129,132,123,118,134,73,131,121,114,118,118,128,80,57,105,107,79,111,115,128,139,73,127,128,91,119,125,110,114,93,131,125,134,121,123,122,146,112,115,119,132,102,109,110,126,115,103,121,101,132,160,159,156,141,123,123,117,128,151,122,120,156,121,119,147,107,89,109,112,156,142,135,118,127,137,144,115,148,109,122,87,118,119,132,121,126,110,114,96,120,122,125,133,118
129,124,114,118,118,110,117,105,122,122,99,125,129,123,134,92,119,120,93,127,139,151,122,111,123,117,135,120,120,121,122,113,139,131,144,123,129,116,121,130,116,121,153,115,114,115,107,139,113,117,108,128,134,131,127,158,128,128,103,132,113,111,177,156,98,117,143,118,117,112,118,120,153,131,130,122,124,120,127,82,101,113,97,106,120,122,128,67,113,120,132,123,124,120,115,91,147,119,122,119,119,100,106,129,135,128,111,118,67,123,131,137,109,123,88,142,146,130,106,142,108,113,115,108,119,119,118,139
129,124,114,97,111,113,134,119,122,121,112,123,114,120,136,101,149,126,82,116,144,123,147,125,118,119,107,114,111,128,113,111,109,121,135,121,122,113,153,114,119,119,153,134,125,103,123,104,122,123,117,122,112,131,109,118,96,116,133,114,114,118,108,127,160,121,126,135,125,119,167,121,106,123,112,123,129,106,106,129,116,124,106,126,124,129,112,126,117,119,116,119,122,117,118,118,109,106,140,115,118,114,120,129,133,130,152,117,130,129,143,137,139,129,110,128,142,172,160,146,107,118,125,117,116,119,106,120
113,119,145,133,137,111,116,120,140,124,135,105,101,121,73,101,122,117,116,121,123,132,137,97,113,117,120,124,123,116,138,109,120,120,108,120,111,111,114,121,121,125,129,129,117,114,113,117,116,119,112,141,124,131,155,125,122,122,128,113,96,107,127,120,126,125,129,118,102,107,108,133,123,123,127,123,118,118,107,148,125,122,107,123,121,125,117,154,91,112,124,103,97,104,105,173,146,134,113,137,156,140,135,197,109,124,103,120,120,120,105,163,110,114,105,119,119,131,114,105,139,131,104,125,123,127,149,64
123,122,129,119,114,113,116,56,108,114,117,95,131,117,105,86,117,125,101,147,192,174,146,101,139,127,118,120,121,122,114,111,111,120,129,121,117,127,117,114,111,115,117,119,117,116,121,116,113,112,93,132,140,158,183,124,122,129,118,124,127,122,112,140,121,130,132,118,120,116,106,129,126,117,148,118,120,114,114,117,108,117,117,100,96,114,117,112,122,125,113,131,156,136,132,118,126,125,146,118,115,108,104,121,113,119,128,129,129,123,91,123,143,126,122,128,140,146,137,123,111,124,98,134,123,126,124,142
117,116,142,108,110,112,104,156,111,116,134,120,78,101,178,135,130,125,107,130,162,121,119,111,118,124,122,121,111,122,118,101,127,113,136,119,116,116,115,111,141,133,132,126,126,124,116,115,117,121,119,113,91,117,117,118,120,120,101,128,133,116,104,119,112,118,111,119,118,111,119,120,127,121,117,121,122,126,123,121,101,117,107,116,121,120,123,122,162,137,107,157,184,158,141,121,115,123,136,117,121,106,118,122,115,113,139,116,116,116,135,122,103,118,107,125,133,139,124,124,138,122,117,119,116,119,108,125
97,118,122,106,113,113,129,123,134,128,138,126,133,129,121,123,141,134,97,122,117,128,115,121,108,115,128,117,114,124,118,118,125,119,135,108,120,114,118,117,109,115,130,130,155,95,67,121,135,129,116,123,113,126,162,118,115,122,118,116,117,126,126,120,130,127,136,125,124,121,108,120,109,113,119,119,118,114,124,120,130,117,84,122,121,120,123,120,110,126,111,121,133,121,134,130,123,125,122,126,132,120,124,161,133,127,122,122,118,121,100,157,110,112,112,118,158,147,124,138,118,119,110,96,102,119,91,123
118,119,130,127,122,114,117,106,133,130,152,111,107,126,117,88,119,121,150,131,163,139,132,102,99,105,125,117,111,123,124,111,139,126,150,118,122,118,158,117,116,122,129,117,119,125,110,120,121,120,85,130,131,117,75,120,119,128,108,145,145,123,127,127,112,119,154,115,111,112,110,119,134,127,125,120,125,116,141,121,125,116,99,121,135,123,128,119,109,124,102,126,118,115,109,119,130,128,119,86,109,116,127,120,116,120,117,128,137,128,150,119,118,120,113,123,111,117,120,120,109,115,117,122,129,124,122,121
135,122,120,120,124,119,126,121,117,123,123,122,114,109,151,121,116,122,89,114,121,130,120,121,120,121,107,131,120,123,120,121,109,117,140,122,120,119,110,123,123,118,141,119,113,124,146,132,116,126,102,141,128,127,114,121,122,124,104,121,121,125,139,120,118,108,117,116,121,132,110,122,127,130,125,134,146,132,143,122,117,125,95,127,125,125,98,123,118,117,116,120,118,117,93,122,123,132,144,127,125,119,153,120,118,114,137,122,120,108,126,121,119,115,115,120,117,127,130,121,128,128,129,125,125,124,145,121
118,122,129,123,137,120,106,121,122,124,127,114,148,133,82,122,115,116,120,109,114,124,122,122,124,122,121,141,140,123,119,129,132,125,127,121,121,125,127,125,110,124,105,116,130,140,120,116,112,115,104,132,123,115,109,121,143,128,109,123,115,137,145,122,117,123,121,119,124,119,96,123,104,108,137,122,120,111,145,125,140,123,106,123,125,125,128,122,121,128,146,100,105,123,122,122,108,117,120,117,107,115,135,120,121,125,142,127,117,118,121,121,123,115,128,122,126,125,138,120,128,125,119,121,118,110,112,122
124,127,143,125,111,114,144,121,114,117,126,112,106,122,113,122,121,114,94,118,127,134,129,122,126,125,117,103,84,110,132,123,124,127,133,141,131,128,138,120,119,125,111,120,124,120,117,122,131,114,96,120,121,122,117,122,98,114,115,107,111,124,93,123,141,132,135,123,86,106,159,125,119,123,124,120,120,117,113,121,113,121,114,122,122,126,96,122,115,117,129,121,117,119,131,121,124,120,153,108,104,121,80,122,121,120,105,131,124,114,115,121,117,119,108,113,116,119,88,122,119,127,100,118,118,114,131,121
113,118,129,120,110,114,112,123,117,113,115,131,123,116,109,122,124,123,98,121,121,128,131,124,123,125,103,117,133,132,125,120,122,125,137,137,138,125,130,121,110,120,118,126,129,114,120,121,111,111,118,123,120,126,115,123,120,124,99,122,140,131,184,119,121,123,118,125,119,109,118,121,136,131,115,120,125,124,134,120,119,118,100,123,133,126,125,119,117,112,99,117,117,120,104,122,116,124,136,176,154,138,135,121,152,136,131,122,139,129,134,123,125,127,122,122,119,120,114,122,111,106,121,123,119,115,116,121
125,120,153,124,129,117,111,122,121,126,131,121,122,127,128,121,112,118,99,124,120,121,135,120,136,127,113,123,123,122,111,120,129,126,123,123,119,121,130,121,103,111,123,117,115,114,83,123,112,116,103,116,123,118,100,122,141,129,122,145,148,117,111,121,106,124,142,117,118,121,119,121,140,122,129,118,118,124,104,121,107,118,108,106,106,116,144,120,139,128,122,137,149,148,142,120,115,119,128,117,116,110,105,121,114,122,140,121,123,122,122,122,130,119,121,118,119,124,106,123,113,119,117,117,118,122,152,121
128,129,136,119,131,119,126,123,110,116,127,123,127,117,123,123,123,119,98,116,131,118,81,123,127,129,100,120,123,127,108,122,122,115,119,121,118,117,122,121,106,115,109,116,122,116,126,122,101,116,105,93,68,90,89,121,155,131,112,123,138,122,143,120,117,129,156,119,117,121,103,119,113,108,152,111,118,117,132,118,108,118,119,118,117,118,110,117,123,127,121,120,117,125,133,117,128,125,146,120,121,114,112,119,119,120,120,119,119,123,113,119,111,118,105,120,122,127,142,119,125,119,120,134,124,123,148,120
124,124,126,123,144,119,117,119,118,125,111,119,115,118,69,120,113,118,87,122,114,116,129,121,115,121,135,93,104,109,84,120,134,128,171,111,99,121,113,120,111,119,148,121,122,120,132,124,109,115,102,118,120,118,119,118,121,122,98,127,118,117,136,118,107,122,115,124,133,115,109,120,154,132,134,124,120,124,123,119,132,122,110,120,119,121,110,127,94,114,118,115,114,117,72,162,125,126,147,124,125,118,127,187,124,126,137,118,119,118,118,157,112,113,119,117,119,118,121,126,114,118,117,119,110,111,110,68
117,123,139,111,102,106,115,72,131,128,132,121,122,120,117,97,121,120,109,121,119,122,128,109,113,119,119,120,118,118,115,117,118,118,143,176,118,120,121,120,134,130,138,121,138,148,146,122,116,125,91,118,118,122,107,127,111,114,100,119,119,120,109,145,120,120,133,117,121,118,147,157,116,116,146,113,116,121,117,87,106,120,121,115,111,110,153,99,143,132,111,126,124,120,170,109,118,124,107,120,121,117,116,115,108,115,125,120,122,119,119,122,119,118,97,122,120,124,134,118,118,122,117,126,119,118,105,120
125,122,118,118,119,114,117,119,109,123,86,115,81,109,121,120,143,126,77,139,125,128,127,121,107,120,123,119,120,118,90,127,117,108,145,119,119,116,121,117,111,122,159,106,114,116,111,119,125,128,134,112,137,124,135,121,131,126,122,118,92,106,105,121,117,118,124,117,118,123,113,121,116,123,143,124,123,115,130,121,121,120,118,130,133,126,154,119,132,119,126,118,119,129,140,121,118,125,121,121,102,114,123,122,122,121,103,129,123,123,116,122,108,122,107,124,129,126,122,123,139,119,123,121,135,142,100,123
125,128,122,121,120,120,140,122,115,122,109,124,140,151,140,121,126,116,118,127,120,123,120,121,113,117,111,120,121,117,110,122,116,122,140,118,118,116,112,121,119,123,123,111,121,121,134,120,129,122,96,115,118,116,93,121,108,119,120,122,107,122,129,121,133,124,159,129,138,118,126,120,125,119,128,126,123,110,139,134,112,119,106,129,104,117,89,166,114,126,130,115,104,121,131,119,142,127,137,127,116,101,138,93,111,116,129,120,114,113,123,107,119,119,81,141,150,128,112,114,115,119,85,111,130,123,106,118
116,121,125,119,117,123,132,119,130,126,122,121,125,126,115,121,118,120,75,122,118,120,105,121,134,118,118,126,120,123,150,126,102,114,146,121,120,115,115,118,115,119,112,100,111,123,101,119,135,133,106,125,123,123,90,121,124,124,111,121,120,123,123,119,110,120,139,112,113,113,104,119,110,105,129,118,131,126,118,117,128,128,99,137,132,153,131,119,117,123,101,123,139,123,107,119,117,121,94,119,123,121,134,119,129,130,140,122,121,127,102,120,121,115,123,120,120,123,116,119,105,117,154,111,108,116,119,119
121,122,159,95,93,109,109,119,121,122,122,127,120,117,122,120,122,122,95,123,109,110,45,122,143,131,103,139,146,123,134,121,107,115,121,117,122,121,120,120,129,119,115,123,110,115,106,122,120,130,88,133,141,154,138,120,126,122,110,120,116,116,115,120,122,120,110,124,120,119,124,120,124,124,110,105,120,142,115,121,122,124,112,137,137,129,145,120,112,119,128,117,115,115,110,121,102,111,139,120,122,110,104,121,130,121,112,122,127,126,87,123,115,123,79,126,125,126,119,124,139,124,121,126,114,113,127,124
144,131,143,130,170,152,141,124,112,122,145,122,117,120,134,125,124,119,107,121,121,118,119,124,122,120,137,123,120,109,137,121,117,126,140,161,141,132,130,121,118,122,117,105,94,115,107,122,117,118,110,132,132,124,114,122,109,117,119,111,121,123,109,122,123,124,140,121,121,120,121,121,145,128,101,124,125,121,153,119,121,123,79,119,143,130,125,120,113,115,89,115,121,116,114,120,105,122,126,123,99,116,118,123,149,127,114,124,123,126,160,114,114,120,109,121,118,129,151,117,111,114,116,142,114,109,115,118
122,130,139,128,115,115,95,120,118,115,128,119,130,129,129,119,113,121,107,125,107,130,106,120,122,116,110,104,104,116,114,122,116,126,133,123,124,118,126,120,120,113,91,120,92,113,93,121,118,117,104,122,154,113,110,122,131,126,102,125,118,126,135,122,120,127,116,120,118,119,117,119,131,119,122,117,117,117,113,120,116,115,111,123,117,126,113,120,118,125,94,127,127,114,80,121,114,119,113,120,119,116,132,121,124,115,113,121,120,120,114,121,120,119,100,118,116,120,138,121,126,130,110,123,124,127,123,121
119,125,128,142,140,117,107,122,119,120,146,121,110,124,94,122,124,122,104,119,118,121,120,118,126,120,110,120,129,109,130,120,125,117,114,118,102,106,116,120,123,129,103,128,135,122,154,118,116,119,110,114,122,132,110,120,125,120,115,115,121,123,135,130,108,120,150,108,112,87,110,136,139,119,126,114,106,112,105,143,106,115,113,117,116,113,79,159,126,121,118,125,125,129,131,133,114,121,137,116,114,116,115,118,114,125,114,110,118,122,127,108,130,128,110,124,130,134,126,93,118,121,112,116,119,121,117,119
131,113,140,118,115,120,116,132,129,133,112,132,133,110,175,122,125,124,110,144,126,118,114,84,129,130,114,115,112,124,93,99,108,115,129,119,109,113,125,110,108,115,114,137,129,110,140,115,132,126,113,119,110,121,140,118,114,127,117,129,108,107,70,120,131,116,120,119,123,128,125,119,128,127,120,124,121,121,126,119,111,110,121,122,122,117,125,121,122,121,120,115,120,115,135,120,139,121,120,116,103,107,99,120,126,129,120,116,102,115,140,117,125,125,121,137,147,121,97,121,110,114,120,108,118,123,115,122
117,119,121,110,84,92,108,122,116,123,127,116,91,115,122,122,130,126,116,114,91,119,114,122,116,115,119,121,116,123,128,120,120,124,119,125,123,120,114,120,120,122,121,118,118,122,119,122,121,119,120,122,119,119,123,118,116,118,120,101,112,111,122,119,138,127,121,121,121,126,126,123,115,118,121,114,110,115,105,121,111,122,121,119,124,121,119,122,123,118,121,123,122,124,126,120,117,120,121,136,126,117,107,121,126,122,121,122,122,121,114,121,122,125,121,127,142,120,116,120,107,118,121,116,131,126,133,122
146,131,120,125,121,120,130,121,109,116,121,97,103,111,116,121,103,119,121,126,123,125,135,120,119,127,120,114,114,124,78,122,139,126,121,121,132,126,107,120,119,116,121,118,104,93,87,120,104,121,121,117,127,127,88,120,128,118,121,121,119,119,135,136,113,116,121,128,126,120,123,135,126,130,120,118,119,104,107,103,117,120,120,123,118,122,140,112,116,115,121,114,119,121,109,117,114,119,121,119,116,116,120,120,121,122,121,115,110,107,105,121,119,125,121,126,126,130,132,121,121,121,121,110,75,96,114,121
115,115,121,128,133,125,121,122,100,113,120,114,117,125,56,123,122,123,120,121,120,118,123,123,120,123,121,137,123,118,116,122,134,127,121,121,130,128,116,121,111,117,121,118,115,115,125,120,111,119,121,124,125,124,123,120,124,117,120,119,123,128,129,122,113,121,121,118,119,118,109,122,123,121,121,114,121,124,145,121,114,118,121,139,153,132,128,119,113,131,120,125,142,121,124,118,117,110,120,117,118,118,132,119,126,123,121,123,123,119,111,126,132,127,121,118,119,123,119,152,126,125,120,127,129,138,126,140
104,112,122,121,117,114,127,90,130,124,120,122,125,118,109,106,103,124,121,125,111,118,101,113,122,125,121,146,126,120,134,116,125,117,121,116,116,120,125,118,122,116,120,106,98,117,115,119,109,116,120,118,124,125,123,134,127,129,121,116,110,149,134,154,120,128,121,117,120,118,128,112,133,117,121,124,151,153,155,103,110,119,121,110,106,113,115,113,127,119,120,122,118,115,115,115,119,121,120,115,123,123,117,118,126,115,121,125,121,126,121,119,128,131,121,122,123,121,134,120,113,116,121,122,121,119,119,120
127,122,121,116,117,121,104,122,114,120,121,122,133,141,114,122,130,119,120,126,146,138,128,122,128,122,120,137,147,124,118,122,122,125,121,99,109,122,123,120,114,119,121,120,117,114,102,121,128,136,120,129,130,118,145,121,120,114,121,122,136,135,111,121,101,111,121,150,132,120,127,120,152,137,120,122,125,114,75,122,116,126,120,119,121,122,124,120,117,117,121,121,121,116,117,121,106,110,120,120,121,124,129,121,125,125,121,115,112,117,114,120,120,125,120,129,117,107,145,120,117,120,121,132,124,123,107,121
118,120,121,117,93,117,160,119,138,123,121,121,119,117,116,121,124,122,121,126,121,117,110,121,108,114,121,124,133,133,118,121,120,123,121,131,122,124,100,121,117,120,121,117,114,116,131,120,122,121,121,130,124,122,128,120,116,124,121,107,107,119,123,121,114,117,121,113,111,119,149,120,136,129,121,120,135,115,109,121,127,123,121,134,160,176,141,120,113,129,121,110,123,115,72,121,112,112,121,115,105,115,110,121,118,124,120,121,119,117,124,120,121,120,121,120,119,125,160,120,123,122,120,132,144,143,154,119
133,129,121,130,118,119,135,135,111,114,122,120,123,120,106,125,104,114,120,122,120,116,135,109,121,124,120,119,120,117,123,116,121,124,120,116,120,124,138,117,128,127,121,137,117,119,128,118,109,119,121,117,120,126,134,118,120,117,120,118,118,120,122,119,126,121,121,124,121,118,121,119,123,119,121,118,108,104,70,122,111,122,121,122,113,119,126,120,132,125,120,124,119,121,123,122,105,120,120,119,120,119,122,122,118,113,121,126,127,122,84,122,121,125,121,124,114,107,121,121,115,116,121,105,102,113,115,122
114,127,121,125,131,122,120,122,129,121,120,120,120,121,117,122,120,120,121,115,112,119,127,121,114,125,121,126,122,123,127,120,124,119,120,122,122,118,124,121,119,120,121,122,119,126,110,120,119,124,121,114,116,109,84,121,97,107,121,126,136,129,81,121,159,128,120,120,111,110,137,120,114,125,121,122,114,106,77,119,112,124,121,120,123,123,147,118,126,125,120,121,120,119,131,119,121,113,121,114,112,123,96,120,122,123,121,121,124,124,140,119,116,122,121,123,117,122,153,119,119,119,120,119,119,121,117,121
126,124,120,118,119,121,128,122,117,121,121,126,119,115,114,122,117,119,121,124,125,126,140,121,145,122,121,134,161,130,144,121,111,122,120,130,147,123,117,120,116,125,120,121,118,119,118,120,118,112,121,120,119,121,132,120,128,125,121,127,125,124,155,121,118,127,121,122,120,122,117,121,109,108,120,119,109,117,130,122,115,123,121,118,134,135,107,121,135,126,120,127,148,158,135,120,114,123,120,123,120,121,115,119,119,121,121,125,124,122,141,118,114,110,121,140,126,126,123,118,125,124,120,107,123,124,121,119
122,127,121,123,132,125,137,119,126,126,120,121,115,121,134,120,119,113,121,122,122,124,112,120,134,126,120,123,121,123,135,120,114,122,120,120,123,119,116,120,122,122,120,121,121,120,128,120,106,116,121,123,120,115,148,119,135,117,120,118,114,114,147,121,114,121,121,119,125,122,116,122,117,126,121,120,113,120,75,122,141,125,120,120,122,124,131,122,116,118,120,123,119,117,115,122,113,116,121,120,120,103,130,122,119,113,121,117,127,141,134,121,116,128,120,113,102,114,132,121,131,125,121,135,117,123,111,120
118,123,120,121,121,120,124,121,124,118,121,123,122,123,122,121,105,118,121,122,123,122,121,120,125,125,121,117,119,121,120,121,139,126,121,138,140,129,128,121,121,121,120,120,115,117,113,121,116,121,121,121,114,130,151,121,114,121,121,127,123,118,120,121,122,114,120,121,120,118,128,123,112,121,121,115,119,120,127,121,125,122,120,120,125,119,107,122,120,121,120,133,134,139,135,120,114,120,121,119,115,117,117,120,123,120,121,123,124,129,110,120,117,122,121,124,126,124,131,120,118,116,121,117,113,117,109,120
120,124,121,124,120,117,119,120,105,123,120,133,127,113,121,122,146,127,121,124,120,124,147,121,115,122,120,119,122,123,119,120,114,112,121,118,118,119,116,120,120,116,121,124,124,126,127,121,126,127,120,117,123,118,94,121,120,126,121,124,120,116,123,120,116,120,120,118,120,116,86,122,130,120,120,123,124,128,142,120,113,120,120,113,114,116,120,121,119,120,122,121,90,77,94,122,141,125,121,117,102,116,130,119,111,121,121,123,124,124,144,119,118,113,121,120,123,122,120,120,121,125,121,122,120,116,120,121
121,128,121,119,119,118,113,122,114,114,120,111,100,123,112,122,136,123,121,132,114,83,142,120,110,126,120,113,112,120,123,120,115,121,121,121,118,118,130,119,134,122,120,123,122,121,122,120,120,126,121,121,121,123,124,118,110,111,121,121,121,121,139,117,132,124,120,122,130,134,171,118,114,122,120,118,122,123,90,119,119,120,121,121,121,120,121,119,129,124,121,128,118,118,129,120,121,123,121,120,122,123,116,123,121,121,121,120,121,119,123,121,107,115,121,117,117,118,125,122,123,121,121,115,108,133,130,122
122,120,122,121,117,119,107,124,116,127,121,121,118,119,112,123,139,126,120,128,122,125,121,123,115,121,121,118,102,117,118,122,111,123,121,122,120,123,131,121,120,119,121,122,127,112,141,122,119,117,121,138,118,101,136,122,118,121,121,116,109,117,101,123,126,129,121,125,120,118,122,123,112,116,122,115,116,117,121,123,118,123,120,108,130,126,126,122,123,123,121,125,146,126,123,121,119,125,121,119,119,122,109,122,116,116,121,121,123,120,121,122,109,112,121,125,128,127,113,122,137,128,120,136,90,110,146,120
124,122,120,116,107,118,116,120,117,128,121,124,121,118,122,119,109,112,121,109,111,113,101,119,127,117,120,122,121,123,146,119,129,128,121,137,133,135,118,119,116,121,121,118,121,119,114,119,126,126,120,120,94,125,141,117,120,121,121,125,124,121,147,117,106,117,121,120,117,122,94,120,127,124,120,122,124,125,149,122,128,122,122,122,122,120,131,124,117,119,121,122,122,120,120,123,128,128,120,140,126,119,144,122,122,119,121,134,136,159,144,121,120,127,121,122,121,121,107,122,122,118,121,121,120,114,112,122
106,119,120,120,119,118,119,121,123,122,121,127,141,133,130,121,143,125,121,115,100,103,124,122,111,115,120,119,115,117,120,123,113,123,121,120,117,116,100,122,132,120,120,120,126,129,180,121,104,118,121,110,128,141,131,120,139,127,121,123,96,112,131,119,115,119,121,123,129,120,115,119,117,122,120,120,120,120,102,119,125,121,120,121,120,116,87,119,122,119,121,122,124,124,134,117,115,119,121,117,113,116,110,118,120,120,120,135,156,126,129,119,127,130,121,122,117,118,130,119,118,120,122,123,120,124,127,122
122,113,121,116,125,123,118,122,126,130,121,132,105,114,137,121,122,122,121,122,114,114,144,120,120,119,121,120,121,117,122,121,126,123,121,121,122,121,133,121,118,123,121,124,123,123,113,120,109,110,120,111,126,138,119,121,146,130,120,120,95,107,115,121,124,131,121,122,123,120,127,120,117,114,120,120,121,125,139,122,111,117,120,121,121,119,125,122,122,119,121,122,121,121,119,121,124,125,121,122,123,122,120,122,114,119,121,118,116,116,106,121,119,123,120,120,133,115,109,122,137,126,120,126,145,142,128,121
108,118,121,117,122,125,121,121,125,124,120,126,125,131,145,120,122,123,120,124,124,120,114,123,116,117,121,116,117,124,165,120,119,122,121,114,130,127,125,120,117,116,121,124,129,123,133,120,123,121,121,123,122,123,129,120,114,117,121,121,120,110,95,121,119,123,121,123,123,117,112,123,130,125,121,123,123,124,124,123,117,122,120,125,124,121,122,122,117,121,121,122,121,121,111,122,115,111,120,106,130,103,132,123,126,129,121,121,112,111,77,122,114,117,121,115,117,122,95,120,118,120,121,123,122,127,129,119
129,126,121,123,122,118,128,119,127,118,120,120,120,120,128,120,117,119,121,123,121,120,117,120,120,123,121,122,121,120,117,121,116,122,121,122,120,115,115,121,113,110,121,117,130,105,146,121,134,127,121,134,133,125,124,121,116,121,121,123,122,116,108,122,117,120,120,118,117,121,128,123,124,122,120,122,122,124,118,123,113,124,121,123,124,119,123,123,121,118,121,121,112,111,117,120,120,124,121,133,120,155,147,119,131,122,121,121,124,122,119,119,114,126,120,119,120,125,123,117,121,117,121,122,112,121,115,116
124,125,120,119,118,122,131,117,114,120,120,124,120,119,117,117,117,115,120,121,122,121,133,117,114,118,120,122,111,114,120,118,128,127,121,119,119,122,117,118,122,122,120,120,120,122,133,119,124,123,121,122,120,123,122,120,110,116,121,123,122,118,119,122,111,123,121,117,120,142,110,122,136,121,121,120,120,145,146,122,119,128,121,126,123,121,138,122,119,116,122,118,120,117,107,121,108,120,120,122,121,116,116,121,130,128,121,118,91,109,109,120,117,121,121,124,118,112,117,119,118,124,120,121,120,119,113,120
