119,119,120,121,121,121,122,121,121,123,120,121,121,121,121,120,118,119,120,121,121,121,121,120,121,122,121,122,122,121,121,119,121,122,120,121,121,121,121,120,120,122,121,121,121,121,121,120,121,122,121,122,121,120,120,120,120,121,121,122,122,122,122,121,120,122,122,122,120,120,121,120,121,119,121,122,121,120,121,120,121,123,120,121,121,121,121,120,120,122,121,121,120,121,121,120,121,121,122,122,121,121,122,121,121,121,121,121,121,121,122,123,120,121,120,121,121,121,121,120,120,120,120,122,121,121,122,120
121,121,120,121,121,121,122,122,121,123,122,123,121,121,121,121,120,121,121,121,121,121,122,121,120,121,121,122,121,121,121,121,120,121,121,122,121,121,121,121,121,122,122,121,121,121,122,120,121,122,121,122,121,121,122,121,120,122,120,121,120,121,121,120,122,124,122,121,120,121,121,121,118,117,121,122,120,120,121,120,121,122,120,121,121,121,121,120,121,122,121,122,121,121,122,122,121,122,121,122,121,120,120,120,121,121,121,121,120,121,121,120,122,123,121,121,120,120,121,119,120,124,122,123,121,120,121,122
120,118,120,121,121,121,121,120,120,123,121,121,120,121,121,119,122,122,121,122,122,122,122,120,119,121,121,122,121,121,121,119,122,122,121,122,121,121,122,122,119,119,120,122,122,121,121,119,114,117,120,121,121,121,121,118,124,124,121,122,121,121,122,123,118,120,120,121,121,120,121,119,102,115,119,121,121,121,120,111,124,122,121,122,122,122,122,123,121,121,120,122,121,121,122,122,121,122,122,122,121,120,121,121,120,121,121,122,121,122,122,120,121,122,121,122,120,121,121,120,121,122,122,122,122,121,122,121
120,121,121,122,121,121,120,120,121,122,121,121,120,121,121,120,122,124,121,121,121,121,121,121,118,117,120,122,121,121,121,119,120,121,120,120,120,120,121,120,121,121,120,122,121,121,122,121,122,122,121,121,121,121,121,121,121,123,121,121,120,121,121,121,120,122,121,122,121,121,122,121,120,121,121,122,122,121,120,119,121,122,121,121,121,121,121,120,121,122,122,122,120,121,121,121,121,122,121,122,121,121,121,120,121,122,121,122,121,122,122,121,120,119,120,122,121,120,121,120,120,121,120,122,121,122,121,120
120,122,121,122,121,121,121,119,121,122,121,121,120,120,121,121,120,121,121,122,122,121,120,119,121,123,120,121,120,121,121,121,120,118,120,122,121,121,121,120,121,123,120,121,121,121,121,120,118,120,121,122,121,121,120,118,122,122,120,121,121,121,122,121,120,122,120,121,120,121,121,121,122,122,120,121,121,121,122,121,120,121,121,122,122,122,121,120,121,122,122,122,121,120,121,120,121,121,121,122,121,121,122,121,120,120,120,120,121,121,121,121,121,122,121,122,121,121,120,120,121,122,121,121,120,121,121,120
121,122,121,122,121,121,121,121,120,121,120,121,121,121,123,121,121,121,120,122,121,121,120,120,120,122,121,122,122,122,121,121,121,122,121,122,121,120,120,120,120,122,121,122,121,120,121,120,119,121,121,122,122,121,121,119,121,121,120,121,120,121,121,120,120,121,121,122,122,121,120,120,121,124,122,122,120,121,121,120,120,120,121,122,121,120,121,121,120,121,121,122,121,121,121,120,121,122,122,123,121,122,122,122,121,121,121,122,121,120,121,120,120,123,120,121,121,121,121,118,121,118,120,121,121,121,122,121
121,126,121,121,121,121,121,123,121,120,121,122,121,120,120,118,120,122,121,122,122,120,120,120,121,122,122,121,121,121,122,119,121,122,121,121,120,121,122,122,121,123,121,122,122,122,122,121,119,117,120,122,122,121,121,119,121,123,121,121,121,121,122,121,120,122,121,122,121,121,121,120,120,121,120,122,121,121,122,120,121,121,120,121,121,121,122,121,121,122,121,121,120,121,121,120,120,120,120,122,121,121,122,120,120,121,121,122,121,122,121,120,121,122,121,122,122,121,121,121,121,122,121,122,121,121,122,120
120,121,121,122,121,121,121,119,120,121,121,122,122,121,121,119,122,124,122,122,121,121,121,120,119,119,121,122,121,121,120,119,120,121,121,122,121,121,121,120,120,122,121,122,122,121,121,119,120,121,121,122,121,121,122,120,121,121,121,122,120,120,121,120,122,123,122,122,121,121,122,120,117,119,119,121,121,121,121,120,121,120,121,122,121,121,121,120,122,126,122,123,121,121,122,120,118,115,120,122,122,121,121,119,121,123,121,121,121,121,121,121,121,123,122,122,121,121,121,121,121,122,121,122,121,120,121,120
121,123,121,122,121,121,122,121,120,120,121,122,121,120,121,120,120,122,121,122,121,120,121,120,122,123,121,121,121,121,122,121,120,121,121,122,121,120,120,119,120,121,121,122,121,120,121,120,120,122,121,122,121,122,121,119,121,122,121,122,120,120,121,120,121,121,121,121,121,121,122,121,121,122,121,122,122,121,121,119,121,123,120,121,121,121,121,120,120,119,121,122,121,120,121,121,120,127,121,122,120,121,121,121,118,110,119,121,121,121,122,120,122,127,122,121,120,121,121,120,122,123,122,122,122,121,121,121
120,122,121,122,120,121,121,120,122,122,122,121,121,121,121,121,121,122,121,122,121,121,121,120,117,119,119,121,121,121,121,119,121,122,122,122,121,120,121,119,121,121,121,122,121,121,122,120,121,121,121,122,121,120,121,120,120,122,121,122,121,121,121,120,121,121,121,122,122,121,120,120,121,122,121,122,121,120,121,120,120,120,121,122,122,122,122,120,120,122,120,121,121,121,121,118,120,120,121,121,121,121,122,121,120,122,121,122,121,120,121,121,120,121,120,121,121,121,122,121,121,122,122,122,121,121,122,121
120,120,121,122,121,121,122,122,121,123,122,121,121,120,120,119,120,119,120,121,121,121,121,121,121,122,120,121,121,121,122,120,121,119,120,122,121,120,121,121,121,123,122,122,122,122,121,119,119,120,121,122,121,121,121,120,121,122,121,122,121,120,120,120,121,122,121,122,121,120,121,120,119,121,121,122,122,122,121,119,120,121,121,121,120,120,121,119,119,119,120,121,121,121,121,120,121,120,121,122,122,122,122,120,121,123,122,122,120,120,121,121,121,122,121,122,121,120,121,120,120,121,121,122,121,121,122,119
121,122,121,121,121,121,122,120,120,121,121,122,121,121,122,121,121,122,121,122,121,121,122,120,119,121,120,121,120,121,121,119,126,122,121,122,121,120,121,122,114,121,121,121,121,122,122,119,124,120,120,122,121,121,120,120,126,124,121,122,121,121,122,122,121,120,121,122,121,121,122,121,123,123,121,121,120,121,121,122,118,121,122,123,122,121,122,120,124,124,121,121,121,121,121,121,115,117,119,121,121,121,121,119,124,123,121,121,121,121,121,121,119,121,120,122,121,121,121,121,123,123,122,122,120,121,122,121
120,125,121,121,121,121,121,121,118,113,118,121,121,121,121,121,121,123,121,121,120,120,121,120,122,124,122,123,121,121,122,121,119,121,121,122,121,121,121,121,120,122,122,122,120,120,121,120,121,122,122,122,121,121,121,120,121,122,121,121,120,120,120,120,118,119,120,121,121,121,122,121,122,122,121,121,120,121,122,121,120,120,121,122,121,120,120,119,122,122,121,122,121,122,121,120,118,121,122,122,121,122,122,120,122,123,121,122,121,121,121,120,122,121,121,122,121,120,121,121,120,121,120,122,121,121,122,121
120,119,119,121,121,121,121,121,122,123,121,121,121,121,121,121,120,121,121,122,121,122,122,120,121,122,121,121,121,121,121,121,119,120,120,122,122,121,121,119,121,122,121,122,122,121,121,120,120,123,121,122,121,121,121,121,119,117,120,121,121,121,122,119,120,121,120,122,121,120,120,119,122,124,122,122,122,122,122,122,121,122,121,122,121,120,120,120,121,121,121,122,121,121,121,120,119,120,121,122,120,120,121,120,119,121,121,122,121,120,121,120,120,122,121,123,121,120,121,121,121,121,121,122,121,121,122,120
122,122,122,122,120,121,121,121,120,122,121,122,122,121,121,120,122,121,121,122,122,122,121,121,121,121,121,122,122,122,121,119,121,122,122,122,121,120,121,121,121,127,120,121,121,121,121,120,119,111,119,121,121,121,122,120,122,125,121,122,121,120,121,120,120,123,121,122,121,121,121,119,121,122,121,122,122,121,120,119,119,121,121,121,121,121,122,121,122,123,121,122,122,121,121,121,120,122,121,122,121,120,120,119,121,122,120,121,121,121,122,121,120,121,121,121,120,121,121,120,121,122,122,123,121,121,121,121
120,121,120,121,121,121,122,120,120,121,121,122,121,121,122,120,121,122,121,122,121,120,121,120,118,122,121,122,122,121,121,119,119,120,121,122,122,121,122,121,122,122,120,121,121,121,121,121,120,120,120,121,121,121,121,120,121,124,121,122,122,121,120,120,120,118,120,122,122,121,120,121,120,123,120,122,121,121,122,121,120,120,122,122,121,121,121,120,121,123,121,122,121,122,121,120,120,120,121,122,121,121,122,120,122,122,121,122,121,121,121,121,119,124,121,122,122,121,121,120,121,116,120,122,121,121,121,120
119,123,120,121,120,120,121,121,121,121,121,122,121,121,121,119,120,122,121,122,121,121,121,119,122,122,121,122,121,120,121,121,119,121,121,122,121,121,120,120,121,122,121,122,121,120,121,121,121,122,121,121,120,120,121,120,121,123,122,121,120,121,121,121,120,120,121,122,122,120,120,120,120,123,121,121,121,121,121,120,121,120,121,122,122,122,121,121,121,124,121,122,122,121,120,120,120,122,121,121,120,120,121,120,120,119,120,122,121,121,122,119,121,123,121,122,122,121,122,121,120,122,121,122,121,121,121,122
121,121,121,122,121,121,121,121,117,120,120,122,121,121,122,119,122,122,122,122,121,120,121,120,123,122,121,123,122,122,121,121,116,120,120,121,120,121,120,119,121,122,122,122,120,121,121,121,121,123,121,121,120,121,121,121,120,119,121,122,121,120,121,120,122,124,121,121,121,121,122,121,119,119,121,122,121,122,121,119,121,125,121,121,121,121,121,120,121,118,121,121,121,121,121,122,119,119,121,122,121,121,121,120,121,123,120,121,121,121,121,121,122,123,121,122,122,121,121,119,121,122,121,121,120,120,121,121
117,120,120,121,120,120,121,119,121,122,121,121,121,121,122,120,120,121,121,122,121,120,121,121,120,122,121,122,122,121,121,119,121,121,121,122,121,121,121,120,119,122,121,122,121,121,122,120,119,120,120,122,121,121,121,120,121,123,121,121,120,121,121,120,120,122,122,122,121,121,121,120,122,122,120,121,120,120,121,121,119,118,120,121,121,121,121,120,122,123,122,122,120,121,121,120,120,121,121,122,121,121,121,120,121,121,121,122,121,121,121,119,119,120,121,122,121,120,120,119,121,122,121,123,122,121,120,120
121,122,121,122,122,121,121,120,120,120,121,122,121,120,120,120,121,122,121,122,122,121,121,120,121,121,121,122,121,122,121,120,121,122,121,121,121,121,122,121,119,120,120,122,121,121,121,120,121,122,120,122,121,122,121,121,121,122,122,122,120,120,121,121,117,118,120,121,121,121,121,119,121,122,121,122,121,120,121,120,123,124,120,121,121,121,122,122,121,121,122,122,121,121,122,121,118,117,120,120,120,120,120,119,121,121,121,122,121,120,121,120,121,123,121,121,121,121,121,120,121,122,121,122,121,122,122,120
120,121,120,121,121,121,122,121,121,121,120,121,121,121,122,121,120,121,121,122,121,120,120,119,121,122,121,122,122,121,121,120,122,124,122,122,121,121,122,121,118,117,120,122,121,121,121,120,121,123,122,122,122,121,121,120,122,123,122,121,120,120,121,121,121,120,120,122,121,121,122,121,119,121,121,122,121,120,120,119,120,121,121,122,121,121,121,120,120,121,121,122,121,121,121,121,121,122,121,122,121,121,122,121,122,122,121,123,122,121,121,121,117,122,121,122,122,121,120,120,120,118,120,122,121,121,121,120
121,122,121,122,121,121,121,120,121,123,122,122,120,121,121,121,121,123,122,122,121,121,121,120,119,118,120,122,122,121,121,119,120,122,120,121,121,121,121,121,121,123,121,122,120,120,121,120,119,121,121,122,120,120,121,117,119,120,121,122,121,121,122,121,119,119,119,121,121,121,121,120,120,122,121,122,121,121,122,120,121,122,121,122,122,122,121,121,121,121,121,122,120,120,121,121,121,122,121,121,121,121,121,120,121,121,121,122,121,121,121,120,121,121,121,122,122,121,120,121,120,121,121,122,122,121,121,121
122,126,122,121,121,121,121,120,117,114,120,121,120,120,120,120,121,124,121,122,121,121,122,121,121,125,121,122,121,122,121,121,121,117,120,121,121,121,122,121,119,123,121,121,121,121,121,119,121,122,122,122,121,120,121,121,121,120,120,121,121,121,121,120,121,121,120,121,121,121,122,120,121,121,121,122,122,120,120,121,119,121,121,122,121,120,121,121,121,122,121,122,121,121,120,119,121,122,121,122,121,121,122,121,121,122,122,122,121,120,121,121,121,121,122,122,122,121,120,120,121,122,121,123,121,120,121,120
118,121,121,122,122,121,121,119,116,119,120,121,120,120,121,119,121,122,121,122,122,121,121,121,121,122,120,121,121,121,122,121,121,121,120,121,121,121,121,120,120,121,121,122,122,122,121,120,121,122,122,122,120,120,121,120,121,122,121,121,120,121,121,120,121,123,121,121,120,121,121,120,118,116,120,121,121,121,121,121,121,122,121,122,121,121,122,120,121,125,121,122,121,121,120,120,120,118,120,122,121,121,122,120,119,120,120,122,121,120,120,119,122,123,121,121,121,121,122,121,121,124,120,121,121,121,122,121
120,117,120,122,120,120,121,120,121,124,122,122,122,120,120,119,121,125,122,122,122,122,121,121,120,118,120,121,121,121,121,121,121,123,120,121,121,121,122,120,122,123,122,121,120,121,121,120,121,123,121,122,122,121,121,120,119,120,120,121,121,120,121,120,121,122,122,122,122,121,121,121,121,122,121,122,121,120,121,120,121,122,121,121,120,121,121,121,118,121,121,122,121,121,122,120,122,124,121,122,122,121,120,120,120,117,120,121,121,122,121,121,119,123,121,122,120,120,121,119,121,121,122,121,120,120,121,120
126,123,121,121,121,122,122,123,120,121,120,122,121,121,121,120,121,121,121,122,121,121,120,118,122,121,120,121,121,121,122,122,122,123,122,123,121,121,122,121,119,119,120,122,121,121,122,120,119,121,121,121,120,120,121,121,121,121,121,122,121,121,122,120,120,122,121,122,121,121,121,120,120,121,121,122,122,121,120,120,120,121,121,122,121,120,121,121,119,121,121,122,121,121,121,122,121,122,122,122,122,121,121,118,121,124,120,121,121,121,121,120,120,118,120,122,121,121,120,120,119,121,121,122,121,120,120,119
121,121,120,121,121,121,122,122,122,121,121,122,122,122,121,119,123,124,121,121,121,121,121,122,116,118,119,121,121,121,121,120,122,123,121,122,121,120,121,120,122,125,121,121,121,121,122,120,120,117,121,122,122,120,120,120,122,124,120,122,121,121,122,120,112,119,121,122,121,120,120,118,123,121,121,121,121,121,122,121,123,123,122,122,122,122,122,121,120,122,121,122,121,121,121,120,123,121,121,122,121,121,121,120,109,120,120,122,121,120,120,117,122,119,120,121,121,121,121,120,122,120,121,121,120,121,121,121
121,122,121,122,121,122,121,120,121,124,122,121,120,121,121,118,121,122,122,122,120,120,121,120,121,121,121,122,122,122,121,120,121,122,121,122,121,120,121,119,121,121,120,122,121,121,122,121,120,120,121,121,120,121,121,120,121,126,122,123,122,121,121,121,119,115,120,122,121,121,120,121,122,125,122,122,122,121,120,118,120,124,122,122,120,121,121,120,119,113,118,121,121,121,121,119,122,125,121,122,121,121,121,119,120,123,121,122,121,122,122,120,121,120,121,122,121,121,122,120,120,121,121,121,121,120,121,121
122,123,122,122,121,121,121,120,120,121,121,122,121,121,121,120,122,122,121,122,121,120,121,121,120,121,121,122,121,121,121,119,119,120,120,121,121,121,121,120,122,123,122,122,121,121,121,121,120,121,121,122,121,120,121,121,120,120,121,122,121,121,121,119,119,121,120,121,121,121,121,119,121,121,121,122,120,120,121,120,120,120,120,122,122,121,121,120,121,122,121,122,122,121,121,121,118,120,120,121,121,121,121,120,122,124,121,121,121,121,122,121,119,117,120,122,121,120,121,119,121,123,120,121,121,121,121,120
122,123,120,121,121,121,122,121,118,116,120,122,120,120,121,120,122,126,122,121,121,121,121,121,121,123,121,122,122,121,120,120,122,122,121,121,120,120,121,120,118,120,120,122,122,122,121,119,122,122,122,122,120,120,121,120,122,122,121,121,121,121,121,120,121,121,121,122,121,122,121,121,121,122,121,122,122,122,122,120,121,121,120,121,121,121,121,120,121,122,121,122,122,121,121,120,120,121,121,122,121,122,121,120,120,121,120,121,121,121,122,120,120,122,121,122,122,121,121,119,122,121,121,122,121,121,122,121
117,121,121,122,122,121,121,120,122,124,122,122,121,121,120,120,120,119,120,121,121,121,121,121,121,122,121,121,120,120,121,120,121,121,120,121,120,121,121,120,121,122,121,122,121,122,122,121,121,121,121,122,120,121,121,120,120,118,120,122,121,122,122,120,120,121,120,121,121,121,121,120,122,123,122,122,120,121,121,121,121,121,120,122,121,121,122,122,118,119,119,121,121,121,121,118,121,121,120,122,121,121,122,120,119,121,121,122,121,122,121,121,120,122,120,122,121,121,121,118,121,123,121,122,121,120,121,120
121,122,121,121,120,121,121,121,120,122,122,122,121,121,122,119,122,122,122,122,121,121,122,122,120,121,121,122,121,122,122,121,121,119,120,122,121,120,120,120,121,123,121,122,121,121,121,121,122,123,121,122,120,121,121,120,117,118,120,122,122,121,121,119,121,122,121,121,121,121,121,121,122,124,121,121,121,121,121,121,119,117,120,122,121,121,122,121,120,120,120,122,121,121,121,121,121,123,121,121,121,121,122,120,120,120,121,122,121,121,121,119,121,122,121,122,121,120,121,119,122,121,121,121,121,121,122,121
121,122,122,121,121,121,122,120,119,120,121,122,122,122,121,121,122,122,122,122,121,120,121,120,121,123,121,121,121,121,121,120,119,118,120,122,121,120,120,121,122,123,120,121,121,121,121,120,120,122,121,122,122,122,121,120,121,120,120,121,121,121,121,120,121,123,121,121,121,121,122,120,120,121,120,121,121,121,122,122,121,122,121,122,122,121,121,117,121,122,122,123,121,121,122,122,121,122,121,122,121,120,121,121,121,122,121,122,121,120,120,119,120,120,120,122,121,122,122,121,119,120,121,122,121,120,121,120
121,120,122,122,122,121,122,121,120,121,120,122,121,120,121,120,121,122,121,122,122,122,121,120,122,122,121,121,121,121,121,121,121,121,121,121,120,121,122,121,116,119,120,121,120,120,120,118,123,122,121,121,121,121,122,121,120,122,121,122,121,121,122,121,120,121,121,122,121,121,121,120,121,124,121,122,121,122,121,120,117,118,121,122,122,121,121,119,120,121,120,121,120,121,121,120,122,123,121,121,121,121,121,121,121,121,121,122,122,121,121,121,120,121,121,121,121,121,122,120,121,122,121,122,122,121,122,121
120,122,121,121,120,121,121,120,123,123,122,122,121,121,121,122,120,121,121,121,121,120,121,120,121,123,121,122,120,120,121,120,121,122,121,121,121,121,122,121,119,121,121,122,121,121,121,120,121,122,121,122,121,121,121,120,121,122,120,121,121,121,121,121,120,124,121,122,121,121,122,121,122,115,119,121,121,121,122,121,119,124,122,122,121,122,122,120,121,122,121,122,121,122,121,120,121,121,121,122,122,121,121,119,121,122,122,121,120,121,121,121,121,125,120,121,121,121,121,121,119,114,120,122,120,120,121,119
122,125,122,122,120,120,121,120,121,123,122,121,120,120,121,120,121,121,121,122,121,120,121,120,121,122,121,122,121,120,121,121,121,121,121,122,121,120,121,120,121,122,122,121,120,121,121,121,117,121,120,121,121,121,121,119,120,119,121,122,122,121,121,121,122,123,122,122,121,121,121,120,121,121,121,121,122,121,122,120,121,122,120,122,121,121,122,119,119,121,121,123,122,121,121,119,121,122,121,121,121,121,121,120,121,122,121,122,120,120,121,120,119,120,121,122,122,122,121,120,121,122,121,122,121,120,121,120
122,122,122,122,121,120,121,120,120,124,121,122,121,120,121,120,120,116,121,122,121,120,120,119,122,125,121,121,120,120,121,121,122,123,121,122,121,122,122,122,120,121,121,122,121,122,121,120,120,122,121,122,120,121,121,120,120,122,122,122,122,121,120,119,122,121,120,121,121,121,122,122,119,120,120,121,121,121,122,120,122,123,121,122,121,120,119,120,121,120,121,122,121,120,121,120,122,123,122,121,121,121,122,121,119,121,122,122,121,121,122,120,121,122,121,122,122,121,120,120,121,121,121,122,120,120,121,123
119,122,121,122,122,121,121,118,121,120,120,121,121,121,122,122,120,120,120,122,121,121,122,122,122,125,121,122,121,121,122,121,118,117,120,121,120,121,121,119,120,122,121,121,121,121,121,120,122,123,122,123,122,122,121,120,120,121,121,122,121,121,121,120,120,118,119,121,120,121,121,119,122,123,121,121,121,121,121,120,121,122,122,122,121,121,122,121,120,122,121,122,121,121,121,120,120,119,120,122,121,121,121,120,121,122,121,122,121,121,122,122,118,117,120,121,121,121,121,120,121,120,120,121,120,120,121,120
122,123,121,121,121,121,122,121,120,121,121,122,121,122,122,120,121,123,120,121,121,121,121,121,120,117,120,122,122,121,122,120,120,123,121,122,121,121,121,119,121,122,121,122,122,121,121,120,120,122,121,122,121,122,121,120,119,120,121,122,121,121,121,120,122,122,122,122,121,121,122,121,120,121,120,121,121,121,121,119,120,119,120,122,121,121,121,121,120,123,121,122,121,121,121,120,122,123,122,122,121,121,122,121,120,121,121,122,120,120,121,120,119,120,120,121,120,121,121,120,120,118,120,121,121,121,122,121
122,123,121,121,121,121,121,121,121,122,121,122,121,121,122,121,120,121,121,122,122,121,121,120,119,122,121,122,120,120,121,120,122,120,121,121,121,121,121,120,120,121,121,122,122,121,122,121,121,123,121,121,120,120,121,120,121,122,121,121,120,121,121,120,121,122,121,121,121,121,122,120,121,121,121,122,121,120,121,120,119,121,121,122,121,120,121,120,121,121,122,121,120,121,121,120,121,122,121,122,121,120,121,120,120,121,121,122,122,121,121,120,120,121,121,122,122,121,121,119,121,121,121,122,122,120,120,120
120,122,121,122,121,122,121,120,120,121,121,121,121,121,121,120,120,121,121,122,121,121,121,121,121,123,121,122,121,121,122,121,120,120,120,121,121,121,121,120,120,121,120,121,121,121,121,120,121,121,120,122,121,122,122,120,118,120,122,122,121,120,121,120,120,122,120,122,121,121,122,121,122,124,120,122,121,121,122,120,121,118,119,121,121,121,121,120,120,122,121,121,120,121,121,121,122,123,121,121,121,121,121,119,120,121,121,122,121,120,120,119,120,122,121,123,121,121,121,121,120,121,121,122,122,122,122,121
121,121,121,122,121,120,120,120,119,122,121,122,121,121,121,121,121,122,121,121,120,121,121,121,121,122,121,121,121,121,121,122,121,122,121,121,120,121,121,120,120,122,121,122,121,121,120,120,119,120,121,122,122,121,120,119,120,120,119,121,121,121,121,122,121,123,121,121,121,121,122,121,121,122,121,122,122,121,121,119,121,122,120,121,121,121,121,121,120,124,121,122,121,121,122,119,119,119,120,122,121,121,121,119,121,119,119,121,121,121,121,120,121,123,122,122,121,121,122,121,120,123,121,123,121,121,121,120
122,125,122,121,120,121,121,120,119,116,121,121,121,121,121,120,120,125,121,121,120,120,121,119,120,122,121,121,120,121,121,122,120,121,121,122,121,120,121,120,121,122,122,121,120,120,121,120,120,122,121,122,122,121,121,120,118,118,121,121,120,120,120,119,120,121,121,122,121,121,121,119,120,123,122,122,121,120,121,120,122,123,121,122,121,122,122,121,119,120,121,122,121,121,122,119,120,121,121,122,121,120,121,120,120,122,121,122,121,121,121,120,121,122,121,121,120,121,121,121,120,120,121,122,121,121,121,121
120,122,121,122,121,121,120,120,120,120,120,121,121,121,122,120,121,122,121,122,121,120,120,120,121,122,121,121,121,121,121,121,120,123,121,122,122,122,121,120,121,120,120,121,121,121,121,120,116,121,120,122,121,121,121,118,121,120,120,121,121,121,121,120,121,123,122,122,120,120,121,121,121,121,120,121,121,121,122,121,119,120,121,122,121,122,121,120,121,122,122,121,120,121,121,121,119,121,121,122,121,121,121,120,120,122,121,122,121,121,122,121,122,122,120,121,121,121,121,120,121,122,121,121,120,121,121,121
121,121,121,122,121,122,121,121,119,124,120,121,121,121,121,120,121,115,119,120,121,121,121,120,121,125,121,121,121,121,121,120,122,124,122,122,121,122,122,121,121,122,122,122,120,120,121,121,119,121,121,122,121,121,120,120,120,121,121,121,120,121,121,120,122,121,120,121,120,120,121,120,121,122,121,122,122,122,122,120,122,123,122,122,121,121,121,121,121,121,120,122,121,121,122,121,118,119,120,122,121,121,121,119,121,122,121,121,121,121,121,120,121,122,121,122,122,122,122,120,121,122,120,121,121,121,121,120
120,121,121,122,120,120,121,120,120,122,122,122,121,121,121,120,121,123,122,122,122,121,121,121,119,117,120,122,121,121,121,120,120,122,121,121,121,120,121,120,121,122,121,122,121,120,121,120,123,123,121,122,121,122,122,120,119,121,121,122,121,121,122,121,121,122,120,121,121,121,121,121,122,123,121,122,122,121,121,120,121,119,122,122,121,121,122,121,120,121,119,121,121,121,121,120,121,121,121,121,121,121,122,121,121,124,121,121,120,121,121,120,121,122,121,121,120,121,121,120,122,122,122,122,121,122,122,122
116,120,120,121,121,121,121,120,120,121,121,122,121,121,122,120,121,122,121,122,121,121,120,117,121,120,121,121,121,121,122,121,120,121,121,122,121,121,122,121,121,121,120,121,121,121,121,120,120,121,120,122,121,121,122,122,121,124,122,122,121,121,122,120,121,120,121,121,120,121,121,120,120,121,120,122,121,121,120,119,120,122,121,121,120,120,121,120,122,123,121,122,121,121,121,120,120,121,122,122,122,121,120,120,118,117,119,121,121,121,121,118,121,122,120,121,120,121,121,119,121,123,121,122,122,122,121,120
121,122,122,121,120,121,121,120,121,122,121,122,121,122,122,121,121,122,121,122,121,120,121,123,119,121,121,122,121,121,121,118,122,125,120,121,121,121,121,119,120,116,120,121,121,121,122,120,119,123,121,121,121,121,121,120,122,122,122,122,122,122,121,121,120,122,121,122,122,121,122,121,120,119,119,121,121,121,122,121,121,124,122,121,120,120,121,121,120,119,121,121,120,120,121,120,119,122,121,122,121,121,121,120,121,122,121,122,121,121,122,120,120,120,120,121,121,121,122,121,121,122,121,122,121,121,122,122
121,123,121,121,120,121,121,121,118,118,120,122,121,122,121,119,121,123,121,122,121,121,122,120,120,122,121,122,121,121,121,119,120,121,121,122,121,121,120,119,120,121,121,122,122,121,120,121,121,121,122,122,122,122,122,121,120,121,120,121,121,121,122,121,120,121,121,122,121,121,121,119,120,120,121,122,120,121,121,119,121,122,120,121,121,121,122,120,119,121,121,122,121,120,121,120,122,121,122,122,121,120,120,121,121,123,122,122,121,121,121,120,121,120,120,121,121,121,122,120,122,121,121,122,122,121,121,120
121,122,122,122,121,121,121,121,120,124,122,121,121,121,121,121,120,117,120,122,121,121,120,119,121,125,121,122,121,120,120,120,119,117,120,122,122,122,121,120,120,121,121,121,120,120,121,120,121,122,121,122,121,121,122,121,121,122,121,122,121,121,120,120,121,122,121,122,120,120,121,120,120,124,121,122,120,121,121,120,119,116,119,121,121,121,121,121,120,124,122,122,121,120,121,120,121,121,121,122,122,121,122,121,120,119,120,122,121,120,120,120,120,122,121,122,122,122,121,120,121,122,121,121,121,121,122,121
118,118,120,121,121,121,121,121,122,123,121,122,121,121,121,121,120,121,121,122,121,120,121,120,121,122,120,121,121,121,122,122,121,122,122,121,120,121,121,121,120,122,121,122,122,121,121,120,120,122,120,121,121,121,121,120,120,122,121,122,122,121,122,121,121,122,121,122,121,120,121,121,119,120,121,122,121,120,121,120,121,121,120,121,121,121,121,121,120,120,121,122,121,121,122,120,120,123,121,121,120,121,121,118,121,121,121,122,121,120,120,117,122,123,121,122,121,121,122,122,121,122,121,121,121,121,121,123
120,119,120,122,121,121,121,121,121,122,121,121,121,121,122,120,121,122,120,121,121,121,121,119,121,122,121,122,121,121,122,119,120,122,122,122,120,120,121,121,120,119,120,121,120,120,121,119,122,121,121,122,122,121,122,120,120,122,122,122,122,121,121,120,121,120,120,122,121,121,121,120,121,122,121,121,121,121,121,120,120,121,121,122,122,121,121,120,120,121,121,122,122,121,121,121,120,122,121,122,122,121,120,121,121,122,121,122,120,120,121,120,120,121,121,122,122,121,120,121,120,122,121,122,121,121,121,119
121,121,121,122,121,120,121,119,120,121,121,122,121,121,121,119,121,122,121,121,120,120,121,120,120,121,121,122,122,121,121,120,121,120,121,122,121,122,122,121,121,122,121,121,120,121,121,120,123,124,121,121,121,121,122,122,121,121,121,122,121,121,120,121,121,121,121,122,121,121,122,120,119,121,121,122,121,121,122,119,117,119,120,122,121,121,121,120,121,121,121,122,120,121,121,119,122,126,122,122,120,120,121,121,118,114,120,122,122,121,120,119,121,123,120,121,121,121,121,120,121,123,122,122,121,120,121,121
121,121,120,122,121,121,122,121,121,122,121,122,121,121,122,120,119,120,120,121,121,121,122,120,122,121,121,121,121,121,121,121,118,120,121,122,122,121,120,120,121,122,121,122,121,120,121,120,120,122,120,121,121,121,121,121,117,118,120,122,122,121,120,118,121,119,119,121,120,120,121,121,120,123,121,121,121,121,121,120,121,122,122,122,121,121,122,120,121,122,121,122,120,121,121,121,121,122,121,122,120,120,121,121,120,121,120,121,121,121,122,121,121,122,121,122,122,121,122,121,121,121,121,122,122,121,120,119
120,121,121,122,121,121,121,120,120,122,121,122,122,120,120,120,121,121,120,122,121,121,122,121,121,122,121,122,121,121,120,119,122,122,121,121,120,121,121,121,119,121,121,122,121,121,121,120,122,121,121,122,122,121,121,120,121,122,122,121,121,121,123,121,120,122,121,122,122,120,118,119,120,121,121,121,120,121,121,120,120,121,121,122,121,121,122,120,121,121,121,122,121,120,121,120,121,121,120,121,121,121,121,120,120,121,120,122,121,120,123,121,122,121,120,121,121,122,124,120,121,122,122,123,121,120,117,121
121,123,122,122,120,121,124,120,122,121,120,122,122,120,118,123,121,122,121,122,122,127,132,120,121,122,121,122,122,120,113,118,120,121,121,122,121,122,122,120,121,121,120,121,121,121,123,122,120,121,121,122,121,121,121,120,121,123,121,121,120,121,122,121,120,120,121,122,122,121,121,121,121,122,121,123,122,121,121,120,122,122,121,122,121,121,122,120,119,120,121,122,121,121,120,120,120,121,121,122,121,119,117,120,121,121,120,122,121,122,125,121,117,121,122,122,120,118,109,115,123,123,122,122,122,123,125,119
119,122,121,122,121,122,122,123,121,123,121,122,122,121,121,121,119,115,119,121,121,121,122,120,119,122,120,122,122,120,121,118,122,123,121,122,121,123,124,119,121,122,121,121,120,118,122,122,121,121,121,122,122,120,120,122,117,120,121,121,121,124,121,114,120,121,120,120,117,115,127,123,117,119,119,121,121,119,119,117,121,120,120,120,120,123,115,126,120,121,121,122,121,116,119,123,119,120,121,122,121,124,127,121,119,122,121,123,122,121,114,112,121,121,121,122,121,121,127,122,122,122,122,123,122,121,121,120
120,121,121,122,121,120,112,116,121,122,121,122,120,119,112,117,121,121,120,121,120,121,117,120,119,121,121,122,119,115,113,116,121,121,121,122,122,123,124,121,119,121,121,122,121,121,119,119,121,119,120,121,119,114,111,121,119,120,119,120,121,125,133,127,121,122,119,120,119,116,138,125,118,120,121,122,122,124,112,117,122,123,122,122,119,121,107,117,121,121,121,122,122,124,132,125,122,123,121,123,123,121,124,123,123,124,122,123,124,128,104,118,119,120,120,121,120,120,116,119,121,121,122,123,122,121,112,121
123,121,120,121,121,121,134,130,120,122,122,123,122,121,126,119,121,121,119,118,117,115,115,118,121,123,122,122,121,121,121,125,118,115,118,120,120,121,119,119,121,122,122,122,121,120,122,120,116,122,121,122,122,119,115,114,123,120,121,122,122,122,126,126,113,118,118,118,116,116,115,114,124,121,120,121,120,119,131,125,121,123,121,122,122,123,125,120,120,121,121,121,121,118,115,121,122,122,122,122,120,119,110,117,122,121,121,121,122,130,144,128,120,121,121,122,122,121,118,120,122,122,120,121,119,115,117,121
119,120,120,121,122,128,115,117,127,123,121,122,123,123,125,125,118,123,122,121,118,115,125,119,120,120,119,118,118,117,118,121,123,122,120,121,121,123,122,120,123,123,121,121,122,119,119,121,109,115,120,123,120,122,122,121,112,116,119,121,121,120,121,115,125,125,122,122,121,119,111,121,119,121,121,121,121,121,120,120,121,120,119,120,120,115,107,120,124,123,122,122,121,119,124,124,121,122,121,121,119,117,109,117,115,119,120,117,117,119,117,121,123,123,121,121,122,121,123,122,125,123,120,121,124,123,121,122
109,117,121,126,119,118,122,118,125,124,121,121,122,125,121,122,133,128,124,125,125,123,125,123,106,118,122,115,111,114,118,116,136,126,122,125,126,122,123,126,121,122,120,121,120,122,122,117,127,125,123,122,124,129,144,127,135,126,122,123,123,122,129,126,125,118,116,109,115,124,120,118,103,117,120,127,124,122,117,118,157,136,127,125,125,120,122,128,85,111,120,126,122,125,124,112,124,123,121,123,124,124,125,121,130,124,125,134,128,120,120,124,119,120,119,111,114,129,123,119,125,123,123,129,128,124,128,121
122,120,119,120,122,122,132,119,127,122,119,119,117,118,126,129,116,120,122,123,123,129,131,117,119,123,121,124,120,124,133,124,119,118,118,116,122,124,126,117,130,124,123,124,119,113,116,124,105,117,118,119,121,126,120,111,149,129,124,125,124,126,125,132,73,101,116,120,119,114,134,111,152,132,129,138,127,124,130,131,83,111,114,106,104,109,119,106,127,122,123,130,130,126,114,119,125,126,122,123,121,119,123,125,127,123,120,122,124,122,122,123,118,120,120,122,120,120,117,117,124,123,123,119,121,123,123,124
112,119,122,125,119,121,122,118,120,119,119,120,126,125,122,120,119,118,121,123,116,120,119,122,127,127,124,132,126,123,124,121,135,124,120,116,127,121,120,125,60,108,117,108,111,117,117,103,133,123,121,123,121,116,108,125,116,120,121,121,121,119,128,120,151,131,123,124,120,115,118,131,75,103,113,120,116,115,109,107,148,130,123,120,122,118,109,127,100,116,121,129,117,124,128,117,131,125,122,128,129,125,121,120,169,138,128,128,129,121,121,133,4,76,102,89,92,109,108,86,135,123,121,122,124,121,118,125
127,127,124,119,130,141,132,124,126,124,122,127,126,126,122,125,115,120,120,130,123,121,121,120,134,122,116,109,111,118,117,120,113,120,122,128,127,128,122,118,118,120,119,123,120,125,127,122,148,129,122,123,123,128,125,125,70,107,116,116,117,110,115,106,128,122,122,122,120,119,122,122,134,126,124,128,125,129,110,118,130,127,124,135,133,123,128,128,104,115,113,104,99,107,112,111,123,116,118,122,124,122,125,118,138,130,129,134,129,122,117,123,145,127,123,124,124,124,123,129,59,106,115,118,121,122,116,98
142,127,125,129,121,114,115,125,127,123,125,128,117,125,125,123,136,128,120,115,126,127,122,128,79,112,120,127,126,122,115,112,118,119,119,119,108,96,121,120,124,125,123,125,125,127,113,119,119,120,121,121,123,128,121,116,122,122,121,127,124,117,125,121,126,126,128,116,118,129,120,124,96,114,119,127,124,123,130,114,145,125,123,124,124,129,127,129,95,114,117,115,118,131,120,114,164,134,126,128,130,127,133,132,13,84,109,108,111,118,108,91,146,131,123,125,124,124,124,130,129,126,122,122,120,121,120,124
129,126,121,127,134,128,125,124,127,122,120,103,102,103,118,121,127,122,121,126,125,118,108,119,126,124,121,126,129,125,134,125,130,124,120,103,104,123,121,124,100,119,121,125,126,126,119,113,130,124,120,126,122,122,105,118,117,122,120,113,121,126,122,120,120,121,121,133,131,131,133,126,130,128,123,122,110,102,116,122,95,112,117,117,116,126,114,112,132,124,122,128,127,122,115,121,125,121,123,127,123,115,120,128,89,117,120,103,109,129,133,112,159,129,123,125,127,124,122,131,82,109,119,125,123,121,123,113
134,128,125,125,124,123,118,127,124,124,120,120,122,123,124,119,119,121,121,122,124,119,119,121,121,120,123,122,119,119,121,121,121,123,121,127,124,121,121,120,117,121,123,124,125,124,122,118,125,122,120,123,123,122,121,123,132,126,123,125,119,121,123,125,101,114,118,119,126,130,122,111,133,125,123,122,117,115,124,128,106,119,120,123,123,126,126,116,114,123,118,118,118,114,125,117,137,124,123,126,121,120,120,122,144,125,120,122,122,119,122,127,119,120,122,125,124,129,134,121,135,125,120,117,116,118,120,124
118,119,120,118,117,119,125,119,108,119,119,121,120,121,120,116,139,126,122,125,123,123,121,128,88,110,120,126,122,119,113,106,127,123,122,118,119,123,118,121,125,124,123,126,126,121,126,123,129,127,122,126,128,124,123,123,104,109,115,108,112,122,113,112,116,117,120,117,119,127,120,119,133,127,121,119,121,115,118,124,110,121,124,129,123,122,122,118,116,119,118,114,118,122,127,120,121,119,124,129,120,113,117,115,139,126,120,122,123,123,124,125,109,119,120,123,124,121,114,120,126,127,124,126,125,128,124,121
120,119,115,98,108,117,123,118,123,117,121,122,118,114,116,118,130,123,120,122,125,126,128,123,133,130,125,123,121,120,122,126,98,114,117,115,117,121,118,111,128,124,123,127,122,120,121,121,124,124,121,119,122,126,122,122,121,122,122,124,121,115,121,121,119,121,123,124,122,121,123,119,123,121,120,117,120,120,121,121,123,122,122,125,122,121,121,122,119,122,122,123,121,118,123,119,119,121,120,119,119,126,128,122,140,128,122,125,123,122,121,128,112,116,120,123,124,126,128,120,89,116,118,121,116,109,110,117
51,107,118,127,123,123,118,102,142,127,121,123,123,121,126,127,128,125,123,126,123,118,121,122,123,122,121,119,120,129,126,125,120,118,119,123,125,121,117,119,119,120,119,117,119,128,121,119,119,120,121,113,116,113,115,119,121,121,121,121,121,120,122,120,120,122,119,123,124,117,119,120,119,121,122,116,116,119,122,120,126,122,122,123,121,119,119,122,110,118,117,120,121,118,122,118,104,118,119,115,116,122,121,117,135,123,121,122,123,125,122,124,106,115,118,115,118,114,121,117,134,126,123,124,120,123,127,124
133,126,123,125,124,125,127,125,115,123,122,129,128,128,128,121,135,126,122,118,116,116,123,122,130,123,120,115,118,120,118,122,133,125,123,121,120,119,122,125,119,120,119,124,124,120,125,120,123,123,122,117,116,121,124,125,122,120,121,126,123,118,117,119,113,121,122,122,120,119,117,117,124,122,121,125,124,124,122,121,135,126,122,117,115,122,117,121,97,113,120,124,120,119,119,112,119,121,121,126,123,120,126,121,135,126,122,123,123,126,116,125,113,119,120,124,123,118,119,119,119,121,121,122,118,123,112,121
115,120,119,119,117,118,126,122,97,116,119,125,124,124,121,112,138,124,121,120,120,120,122,121,119,123,123,124,121,120,128,125,115,120,119,123,123,123,125,118,123,119,121,120,120,117,117,118,118,121,122,124,121,120,121,121,127,123,121,120,120,119,115,121,127,122,121,124,125,121,122,127,122,126,123,119,114,124,122,119,125,123,122,124,122,111,116,121,121,122,121,123,124,128,126,120,127,122,122,125,119,114,116,124,115,120,121,120,122,125,111,117,121,122,120,123,122,111,129,120,139,125,120,119,119,123,119,125
83,108,117,116,118,114,121,107,146,128,124,126,122,117,125,129,102,120,121,125,128,129,124,115,136,127,121,119,113,107,113,121,120,119,121,119,121,129,129,122,128,123,124,127,123,117,119,120,136,126,117,119,117,113,121,120,91,107,118,107,113,132,119,110,123,122,121,123,120,119,131,126,146,131,123,126,124,128,123,128,69,109,119,118,116,113,116,105,139,126,123,127,129,131,124,125,128,125,123,129,123,115,128,124,109,119,119,113,117,122,127,123,132,124,120,128,128,125,124,120,106,117,119,97,99,114,121,115
132,125,123,128,133,124,116,123,129,127,125,126,124,115,127,126,111,115,119,120,123,126,125,117,119,122,122,124,122,116,118,119,126,125,121,120,125,135,133,126,122,121,121,123,122,120,119,120,117,118,119,117,116,118,122,117,129,127,125,127,124,116,121,127,120,122,120,120,121,122,136,120,117,121,121,122,124,121,109,115,130,125,125,123,123,128,127,123,100,115,120,122,119,119,118,113,123,121,120,123,122,119,119,121,123,126,123,126,120,119,124,123,97,113,116,114,118,123,127,116,123,125,123,123,122,123,123,120
106,113,117,123,125,122,121,117,119,119,119,121,121,118,118,119,145,128,123,129,126,126,123,127,81,106,117,109,108,125,117,108,124,122,119,120,123,121,117,120,134,125,123,122,122,131,126,127,98,118,120,126,126,122,120,117,131,125,123,123,117,114,120,123,101,114,116,110,111,113,117,118,127,122,118,119,117,114,113,121,122,122,120,123,124,133,131,121,146,128,123,125,124,125,121,126,85,110,118,126,122,111,115,107,134,126,121,119,123,126,133,125,131,125,121,116,119,122,120,121,109,121,122,122,120,120,119,117
133,126,122,123,122,122,124,123,127,123,121,123,123,120,116,122,125,123,121,121,120,122,125,122,101,114,117,117,114,114,122,115,135,122,118,119,118,118,121,121,108,119,120,120,118,112,113,115,144,128,122,126,124,124,126,130,61,102,112,107,113,126,129,104,127,123,122,125,121,119,119,121,127,124,122,126,126,128,124,124,124,123,121,124,124,121,119,120,112,117,120,121,118,127,126,118,128,122,122,126,124,118,120,126,94,121,120,123,127,131,124,114,130,123,119,117,113,118,120,125,124,121,119,119,119,116,120,119
138,127,124,126,124,122,121,123,102,116,119,121,119,115,119,114,122,120,119,119,122,126,128,122,122,122,121,124,121,117,121,119,136,127,122,120,123,127,127,125,81,108,118,128,122,119,129,112,129,126,122,120,122,126,127,122,127,120,122,124,122,120,116,121,105,118,120,122,121,121,119,114,117,124,121,119,118,113,118,120,127,123,125,122,120,120,121,125,117,118,120,122,123,120,122,119,126,125,122,125,122,118,119,121,133,125,121,118,125,122,123,126,119,120,117,114,110,118,123,120,98,115,118,120,119,117,116,108
130,123,122,126,123,119,124,121,124,124,121,121,121,123,112,122,124,124,124,125,124,127,125,123,129,124,121,120,117,116,118,119,101,112,118,121,119,119,120,118,132,123,122,122,122,115,122,126,109,121,120,120,123,127,129,118,132,126,122,122,120,126,127,124,112,119,122,124,121,119,127,121,117,121,121,123,123,122,121,120,126,122,120,123,125,126,131,124,108,118,119,123,123,122,122,120,117,120,120,113,118,122,125,121,127,122,122,120,114,116,119,119,115,116,118,119,117,108,111,114,130,123,119,121,121,120,109,120
131,124,121,123,122,121,123,124,116,121,122,121,122,122,122,119,114,118,119,128,126,120,122,119,123,122,122,114,114,118,121,122,119,122,121,124,125,122,123,121,129,124,122,124,124,122,122,121,119,119,119,118,120,120,121,118,121,123,122,120,118,118,121,121,126,120,120,119,119,122,123,119,126,124,121,122,122,121,119,123,113,117,119,124,125,123,115,113,144,127,120,117,117,122,123,126,75,112,119,122,121,118,118,109,125,118,117,121,121,121,124,125,120,121,122,119,119,121,125,121,111,120,121,125,125,124,119,117
125,123,123,125,122,123,115,124,114,122,119,119,115,103,117,119,121,122,120,119,122,134,126,119,131,126,122,120,122,123,125,123,111,120,122,122,118,112,119,118,122,121,121,126,121,117,120,121,135,125,122,118,118,119,121,125,112,118,120,121,122,123,120,117,118,119,120,124,122,121,120,119,132,126,123,123,123,124,124,124,113,120,121,124,122,121,123,119,130,120,119,119,116,114,115,119,122,123,123,126,124,122,121,122,137,127,124,123,122,120,120,123,97,113,118,121,121,121,122,114,124,122,120,122,122,121,121,122
125,125,123,124,119,119,116,120,125,122,124,127,126,121,114,121,112,117,115,117,111,111,117,116,122,122,121,123,122,121,119,121,118,122,121,123,123,121,119,119,123,123,124,126,124,122,122,123,123,121,119,120,120,119,117,119,125,123,121,120,118,121,124,121,89,112,117,119,120,121,120,112,138,126,123,123,124,126,126,126,94,115,118,122,119,117,120,113,136,126,124,122,121,124,125,126,116,122,122,122,121,122,124,118,135,128,123,126,125,124,123,125,106,116,121,118,116,117,119,116,113,119,118,121,123,123,125,116
130,122,122,122,120,118,120,123,118,120,119,124,124,122,111,115,124,123,121,126,125,128,130,123,110,115,117,113,112,112,115,116,125,123,116,110,116,121,122,123,130,125,127,128,127,123,114,124,90,115,118,116,118,122,122,113,130,125,122,114,117,121,127,123,118,123,124,129,126,122,121,121,132,127,121,118,121,126,122,121,124,119,121,124,121,119,119,119,138,127,123,121,120,121,123,126,118,123,124,128,125,120,119,119,121,121,120,125,125,121,122,118,129,125,121,115,113,115,122,124,124,124,121,122,125,122,129,124
114,118,120,120,119,116,117,113,122,121,119,117,119,120,122,121,133,125,124,120,112,113,119,123,108,116,116,117,117,119,122,117,117,119,118,116,121,120,118,118,140,127,125,126,117,108,118,126,104,113,116,114,116,119,124,112,135,121,123,124,122,121,123,125,135,124,123,122,120,121,124,124,116,121,120,122,121,117,120,121,115,118,120,117,117,122,124,121,124,122,121,126,124,118,111,117,127,123,123,124,123,122,122,121,121,121,121,124,124,122,120,119,112,122,120,116,116,115,120,120,131,123,122,125,121,122,120,124
116,121,120,119,121,122,119,118,125,123,122,122,119,121,124,123,115,116,118,121,121,119,122,120,123,124,124,123,123,122,123,122,123,122,119,121,123,122,120,118,137,128,124,122,120,120,107,127,106,118,120,125,123,122,130,116,131,126,123,117,120,122,130,124,120,121,121,124,123,122,125,119,138,126,123,122,122,120,123,126,133,126,123,125,123,122,119,125,106,114,117,119,118,118,119,115,123,122,122,125,128,127,123,120,116,121,120,112,111,114,113,117,118,121,120,123,125,125,141,121,131,124,122,125,122,120,115,121
122,122,120,124,123,123,110,117,97,109,115,106,110,117,106,109,144,130,125,125,122,116,121,131,115,116,117,123,120,114,106,115,118,118,120,120,119,125,127,121,123,126,124,126,125,124,121,120,142,126,121,119,121,124,125,127,102,117,121,125,126,123,122,114,129,124,124,125,121,122,125,127,122,122,121,117,119,118,118,118,126,126,121,122,122,121,121,121,109,121,123,123,120,119,122,116,124,120,119,121,122,121,126,125,112,117,117,119,114,109,110,115,113,121,122,122,121,120,116,119,125,124,123,129,129,129,138,123
121,121,120,123,120,120,123,118,136,125,122,123,122,120,120,124,106,114,118,120,118,116,120,117,119,117,118,121,121,122,119,117,116,123,122,123,122,121,122,123,122,124,124,123,123,125,124,120,117,118,118,120,121,120,115,118,126,125,122,120,118,122,123,121,122,120,121,122,122,120,124,120,127,124,122,125,124,122,121,123,130,122,121,121,121,121,120,121,119,123,121,123,122,121,118,121,107,116,121,123,122,119,120,119,102,118,118,119,119,119,119,115,125,123,122,119,119,124,122,121,126,124,123,123,122,120,121,125
120,121,120,121,121,121,122,118,118,122,123,124,123,122,123,119,113,117,120,122,121,120,122,118,130,122,121,122,122,122,120,122,116,120,120,121,121,123,127,120,115,122,122,122,122,121,120,121,116,124,122,122,122,123,126,123,124,122,123,123,122,123,127,124,120,123,121,122,120,120,115,120,123,118,118,118,117,118,116,116,119,122,121,120,119,119,121,121,130,122,121,127,122,118,124,125,118,119,120,117,119,121,119,119,123,122,120,123,122,122,120,121,109,121,123,132,127,124,122,118,112,116,118,110,110,115,119,115
131,124,122,127,128,122,114,122,116,119,120,123,122,122,121,122,121,121,121,124,121,117,121,120,95,120,122,122,122,124,125,117,138,126,123,124,122,124,119,125,119,120,119,117,120,126,136,124,115,120,119,121,121,121,120,117,119,122,120,122,122,121,117,121,140,127,122,124,120,119,121,125,110,115,118,121,121,120,120,116,130,125,124,125,124,122,120,119,130,124,121,121,121,123,125,126,138,127,123,130,131,124,126,126,103,119,120,107,106,117,119,113,131,125,123,125,125,123,125,125,118,122,121,123,123,122,120,119
143,128,125,126,128,126,129,129,82,107,119,114,111,113,113,106,137,125,121,120,122,123,123,125,124,123,121,123,125,123,125,123,123,120,121,118,118,120,122,120,117,122,122,125,123,121,121,122,110,117,118,120,118,117,108,116,135,128,124,125,124,122,123,125,134,122,120,121,121,123,127,124,119,120,121,121,119,118,118,119,151,132,125,129,130,125,132,131,101,113,119,111,109,117,114,109,136,127,122,126,126,123,121,126,123,123,120,122,122,122,118,120,120,119,119,121,120,118,120,119,128,121,122,125,126,125,126,125
96,112,119,125,121,121,119,112,126,122,119,118,118,119,122,122,124,122,121,123,124,123,124,122,127,125,123,125,125,123,122,123,110,115,118,117,117,119,119,117,125,122,121,122,122,124,114,121,117,120,121,123,124,126,131,121,106,115,117,121,123,124,123,113,134,125,122,124,123,123,123,124,131,125,122,122,123,123,123,124,110,119,119,121,121,121,119,119,130,121,122,126,126,123,120,124,78,112,121,122,121,125,120,107,122,120,120,110,103,111,114,116,132,127,123,129,129,125,123,124,125,122,121,124,124,121,120,121
118,122,121,123,123,122,123,120,120,122,121,121,119,117,121,122,123,122,121,122,121,120,118,121,128,123,122,120,118,119,125,124,118,123,124,126,126,123,116,116,141,127,122,122,121,123,125,128,93,112,118,121,122,122,121,113,125,126,122,121,120,121,121,123,83,110,116,120,117,116,116,109,75,111,119,120,121,121,121,109,131,125,123,123,123,122,123,124,134,125,122,122,121,119,120,123,133,123,121,123,122,124,125,125,111,118,119,120,122,123,122,121,118,126,131,116,116,118,121,121,125,122,118,123,125,123,122,119
121,120,116,123,121,119,120,121,117,124,126,122,121,121,121,118,131,126,127,125,126,125,122,120,108,113,118,114,113,116,121,116,129,125,123,122,121,120,120,124,124,125,123,127,128,126,123,124,100,113,116,122,117,118,122,117,131,125,122,110,116,121,126,125,123,120,119,124,123,124,123,119,136,125,123,130,128,121,113,119,103,116,117,105,111,120,122,116,126,125,124,127,123,120,121,123,127,123,120,116,122,124,127,124,124,123,122,127,123,121,121,121,103,116,119,120,121,123,120,113,126,125,123,134,135,128,127,124
68,100,113,99,97,113,112,104,139,128,123,128,127,122,123,127,127,123,122,125,124,123,123,125,111,119,120,122,123,123,123,117,129,124,122,130,130,123,122,124,106,117,115,88,102,117,121,117,125,122,122,130,125,120,116,120,127,122,120,118,120,123,123,122,132,126,122,124,124,120,119,120,119,118,119,123,123,124,126,120,132,125,123,124,119,121,128,123,116,114,117,121,122,120,119,118,126,123,123,127,124,124,123,124,123,119,120,128,123,121,121,121,127,120,121,125,118,114,117,118,122,120,120,124,124,124,127,123
118,123,122,124,123,122,120,119,127,122,121,122,122,120,119,121,132,126,125,126,125,124,128,129,129,122,117,123,124,119,117,118,108,112,112,89,99,109,116,114,129,125,123,129,128,124,126,123,139,128,124,125,125,123,117,126,104,120,119,118,118,121,123,116,124,117,119,125,123,120,121,118,129,124,122,123,123,122,122,124,126,126,123,123,122,123,121,123,93,112,117,121,120,117,119,114,130,123,119,123,124,123,124,124,118,122,121,117,116,118,119,119,124,121,121,124,124,125,130,122,105,120,120,127,125,124,117,114
127,121,120,117,116,119,125,123,123,123,123,126,123,122,117,118,128,124,121,122,123,124,126,121,127,125,123,122,119,114,120,124,116,119,120,127,127,129,126,117,126,125,122,118,119,124,120,121,130,124,121,119,117,108,122,124,114,122,122,125,123,130,120,119,130,122,121,122,115,76,98,119,110,120,120,121,123,141,131,121,123,121,121,121,120,116,115,119,133,126,122,123,121,124,121,123,97,116,121,123,123,123,122,117,103,121,121,120,120,122,120,113,121,118,119,121,120,120,126,121,132,125,123,125,124,122,122,123
127,123,121,123,123,124,125,123,117,120,122,123,121,121,124,122,113,118,118,122,119,117,116,114,124,123,123,125,126,127,124,124,120,123,121,123,120,113,121,120,124,123,124,115,119,124,123,122,124,124,123,122,122,123,124,123,114,118,120,124,122,121,121,117,122,121,121,119,121,122,121,120,127,124,122,118,119,122,122,124,118,120,121,124,120,119,120,119,99,114,118,124,123,121,119,111,116,123,122,123,123,120,122,120,136,126,122,119,119,121,124,127,100,117,123,132,129,125,119,114,114,122,120,104,113,119,119,117
122,123,123,126,126,126,123,123,111,119,121,122,121,116,118,116,135,127,124,128,130,128,127,127,90,111,118,112,109,110,116,112,111,119,122,119,122,126,124,121,128,125,122,126,126,125,121,122,115,121,121,125,123,119,115,117,124,122,122,120,120,127,130,125,122,121,120,122,119,116,113,117,130,124,122,124,121,111,118,121,99,115,120,123,122,132,133,117,128,124,121,121,124,124,120,123,109,120,120,119,117,117,121,118,121,122,122,120,120,118,123,121,102,115,119,119,120,124,118,114,125,121,120,122,121,119,120,122
110,120,120,123,122,122,123,119,120,122,121,122,122,123,121,118,136,125,120,117,119,120,123,123,110,116,121,128,125,118,121,117,114,118,120,118,118,124,123,118,126,124,123,123,117,117,119,120,120,120,120,122,124,122,118,120,120,121,120,122,120,121,119,121,120,121,120,123,121,119,120,119,121,122,121,114,120,125,123,119,120,120,121,121,116,110,121,119,120,120,119,122,123,126,116,118,133,125,123,127,125,117,118,126,97,115,118,116,118,122,122,113,128,125,120,118,120,119,115,122,110,114,120,121,121,121,121,117
122,123,121,123,123,123,121,122,126,124,121,123,123,122,122,121,127,120,120,122,122,124,123,122,120,120,118,119,118,120,121,117,129,124,122,123,123,123,124,125,126,124,123,123,121,121,121,122,119,121,121,127,125,125,120,120,120,119,119,115,117,119,122,120,121,123,123,127,125,120,116,117,119,120,121,124,124,123,123,120,132,125,121,122,122,122,122,125,105,119,122,125,125,126,124,115,130,125,123,123,113,115,122,122,132,121,120,124,123,119,119,121,128,124,121,125,124,122,121,123,126,124,122,124,123,126,129,123
115,119,119,125,123,118,116,117,127,120,122,117,120,125,127,123,120,123,122,124,123,122,120,122,121,121,121,123,121,120,121,120,122,120,121,124,122,117,120,120,111,118,119,121,122,130,122,119,121,123,123,124,122,119,120,120,119,121,121,122,122,120,120,120,117,119,121,124,125,126,127,119,134,124,120,127,123,121,123,125,122,123,120,107,113,125,127,119,126,119,120,125,124,121,123,126,112,122,120,121,121,122,122,120,116,121,115,119,116,120,120,116,107,117,121,121,119,119,118,114,131,125,120,114,118,120,126,123
125,126,122,128,125,123,119,122,121,121,123,120,117,116,121,121,116,121,121,125,124,128,122,118,126,122,121,123,122,119,120,122,99,114,118,121,121,121,123,115,126,122,121,122,121,125,119,120,128,124,121,121,121,119,119,121,105,120,120,120,119,118,124,117,120,123,122,122,121,121,120,120,116,114,119,123,120,121,117,116,123,124,122,123,124,123,121,119,136,125,121,123,122,120,124,125,81,114,118,125,123,128,132,111,114,117,118,120,120,116,116,118,129,124,123,125,126,127,122,123,126,123,119,121,116,112,119,122
112,118,119,116,114,117,114,114,125,123,123,126,124,122,119,122,122,123,121,124,123,122,126,119,130,123,118,115,118,122,123,124,106,117,120,122,122,116,117,114,116,119,120,119,119,119,119,117,128,123,119,119,121,127,128,125,121,123,126,126,122,119,121,121,125,122,120,121,122,124,122,123,134,125,123,128,126,123,120,122,95,110,118,119,121,125,124,115,142,130,126,125,120,111,116,128,72,108,116,121,117,117,118,107,138,125,123,127,124,119,117,123,131,127,124,124,123,126,123,125,122,122,121,121,118,115,116,121
125,123,120,122,122,119,121,122,111,119,120,123,123,126,118,117,126,122,124,124,119,121,124,123,122,121,120,125,124,122,122,121,113,120,122,126,122,117,119,115,124,122,120,119,119,124,121,121,128,123,120,121,120,118,121,123,113,120,118,116,118,124,119,116,127,120,121,124,122,119,118,119,117,120,120,121,122,122,128,122,137,126,122,127,123,120,120,123,114,115,115,106,110,116,118,118,118,120,122,125,124,122,121,119,115,121,122,123,122,121,121,120,122,125,123,129,128,122,125,122,92,113,116,107,107,110,114,113
115,121,121,125,124,126,124,119,124,123,121,121,123,123,121,122,121,121,122,124,119,119,124,120,126,124,120,117,120,118,119,121,105,116,120,119,118,120,120,115,126,123,121,125,122,116,119,121,123,121,121,122,122,121,121,121,124,123,121,119,120,121,119,120,134,124,122,122,122,125,123,122,97,115,120,127,123,117,115,115,109,122,124,125,122,122,119,116,132,125,121,123,124,123,125,125,130,125,122,127,124,122,119,121,111,119,120,120,122,124,128,119,100,116,121,126,124,122,121,116,132,123,122,124,123,125,124,123
135,125,122,124,125,124,123,126,63,105,118,113,113,111,114,106,132,125,122,123,123,124,122,123,127,125,123,124,123,121,119,121,124,120,119,124,125,122,118,121,117,121,119,113,114,121,122,118,121,122,123,129,124,123,124,121,124,122,120,123,123,124,123,121,129,125,121,124,125,123,121,122,105,115,119,117,113,111,119,116,121,123,123,126,122,120,120,119,131,125,123,126,123,119,119,122,120,121,116,124,125,120,124,120,123,126,123,120,114,118,119,120,130,120,119,113,117,123,127,120,129,126,123,126,125,123,119,122
132,127,122,124,122,119,124,124,115,114,113,108,112,121,116,115,113,116,121,124,118,115,117,114,132,128,123,124,124,122,123,125,133,124,123,124,124,123,124,126,112,116,116,115,115,113,118,117,111,120,122,123,121,122,123,115,130,126,124,133,133,126,128,124,121,116,111,88,91,103,112,119,119,118,121,128,125,120,127,120,125,123,123,127,125,122,123,120,122,122,121,122,123,124,125,123,120,121,119,119,118,112,118,120,119,120,122,122,119,114,118,117,132,125,122,122,123,128,126,123,128,123,121,139,132,115,117,123
63,101,119,92,98,115,114,103,146,130,124,130,130,127,124,130,129,125,122,125,124,122,122,123,128,125,122,123,123,122,123,121,119,118,119,122,115,112,113,118,105,116,119,120,120,123,122,115,131,125,122,122,120,116,122,125,123,123,121,123,124,128,127,122,120,122,122,125,123,122,122,120,117,119,118,115,115,119,121,118,119,119,120,121,120,117,121,117,123,122,120,123,124,126,126,123,133,124,121,119,121,125,123,125,90,116,121,123,113,109,117,113,123,121,121,127,126,127,121,120,123,126,124,126,124,122,125,123
121,120,120,123,124,123,123,120,117,124,123,123,120,122,123,118,143,128,123,128,126,120,118,124,64,102,115,116,117,117,118,109,134,124,124,127,123,124,124,127,124,123,122,121,119,115,112,119,86,116,120,122,120,121,125,114,128,124,122,122,123,124,121,121,126,121,120,124,128,127,122,122,116,122,121,116,116,121,124,121,120,121,124,125,120,121,120,119,135,124,120,119,123,120,122,127,80,112,117,118,119,124,119,111,152,127,125,127,122,116,117,128,78,118,123,125,124,128,127,112,157,132,126,123,122,122,119,132
70,105,117,124,121,122,114,106,132,125,122,119,120,118,123,123,129,124,120,123,122,122,113,122,123,123,122,125,123,124,120,120,104,116,119,117,120,120,122,115,120,122,123,125,124,122,121,121,122,121,118,119,118,115,120,120,127,121,120,117,115,118,119,121,109,120,122,125,122,121,120,118,125,122,119,119,121,118,120,121,125,122,121,121,120,119,122,121,123,120,118,117,120,125,118,121,134,126,123,125,124,122,118,123,99,120,120,117,121,120,124,116,135,124,121,124,118,120,126,125,132,125,123,128,124,121,115,120
116,117,119,117,117,118,122,120,153,132,125,125,124,121,121,128,91,109,115,118,117,115,117,111,152,129,121,123,127,123,126,130,90,111,121,111,103,115,120,108,136,126,122,126,127,124,125,126,122,123,122,125,125,123,122,122,120,119,119,123,122,124,123,118,121,122,122,129,127,121,122,122,119,118,118,114,112,117,119,121,118,122,122,122,121,118,119,118,122,123,123,126,124,127,127,122,128,124,121,122,124,119,129,124,114,118,123,121,119,121,125,118,121,120,122,130,123,124,121,121,122,125,122,115,119,118,118,121
115,121,121,125,123,123,129,121,133,122,121,122,123,121,121,124,117,122,120,123,121,121,134,120,127,118,122,125,123,122,114,115,136,127,123,127,125,126,129,127,136,126,122,122,123,122,123,125,103,117,120,122,121,122,121,118,120,121,119,121,122,117,117,117,116,117,118,114,114,116,121,117,123,123,122,127,123,121,120,122,121,123,121,119,121,125,124,120,123,123,122,123,121,119,120,121,127,124,122,130,130,120,122,125,111,119,126,112,110,126,133,121,130,124,122,128,127,123,122,122,118,122,120,122,122,121,121,116
124,122,121,124,121,120,119,121,127,123,122,122,122,123,119,119,125,120,119,116,122,122,121,123,133,123,124,123,117,119,124,120,117,124,124,126,123,120,118,117,120,119,119,123,125,126,127,119,136,128,123,119,120,126,125,125,128,122,121,122,119,117,124,121,121,119,120,123,123,121,117,120,123,121,119,121,122,124,125,120,119,121,122,129,125,122,124,122,118,118,119,119,117,121,116,117,122,122,121,120,118,115,118,122,120,122,120,123,122,122,128,121,120,121,121,120,121,121,111,117,119,120,123,124,119,118,120,117
130,125,121,123,122,123,119,123,117,119,120,122,122,121,123,124,93,119,120,119,120,123,117,112,129,120,120,115,113,115,117,117,149,129,124,125,124,122,122,130,98,118,119,123,124,124,129,117,124,122,121,121,120,117,119,121,152,124,120,123,121,121,119,125,54,100,117,119,117,115,114,100,128,124,122,124,122,120,125,128,129,125,123,126,125,122,121,124,122,122,119,114,117,125,128,124,118,119,121,124,120,115,119,118,121,121,119,125,126,127,128,123,121,120,120,117,120,121,122,120,119,119,119,119,119,118,117,119
120,120,118,120,120,120,119,120,118,122,121,125,122,119,121,120,123,122,118,116,117,116,118,120,129,125,124,126,123,123,122,122,103,116,119,121,121,124,121,119,70,108,117,121,122,124,120,107,145,130,124,129,125,123,126,127,117,123,120,114,117,120,118,119,112,116,120,124,121,120,114,118,138,123,121,123,121,120,122,125,104,119,119,119,122,121,126,116,130,123,121,121,118,119,121,122,129,124,123,125,125,125,123,125,116,119,118,120,120,121,117,118,131,125,124,128,123,121,123,124,112,116,116,106,113,124,121,116
105,117,121,126,122,116,111,113,126,123,120,122,121,121,118,120,123,122,120,121,123,122,119,122,145,127,121,126,122,118,117,127,65,103,118,117,114,119,118,104,130,124,122,125,124,122,126,124,125,123,122,124,122,119,120,122,128,125,124,123,122,124,126,122,121,122,120,121,124,121,123,120,113,113,117,114,112,112,117,115,137,126,123,127,123,121,120,125,108,120,120,121,123,120,118,118,147,130,123,123,122,122,126,129,118,121,121,123,119,119,118,118,95,114,119,118,119,120,121,116,130,124,122,122,122,122,121,123
121,123,122,122,122,120,122,122,120,122,120,122,122,121,120,119,120,121,121,125,125,127,124,121,122,124,125,124,121,122,126,122,119,122,121,123,120,114,123,120,123,123,121,122,120,106,116,119,123,121,121,124,127,143,128,123,116,118,120,119,118,109,123,121,109,120,120,121,120,118,116,114,151,130,123,124,127,135,122,129,98,115,119,120,117,111,126,114,138,125,122,123,124,130,122,126,92,117,119,121,122,124,130,116,121,122,121,118,117,117,126,124,117,121,121,123,124,124,119,121,133,124,122,127,127,124,123,127
125,122,122,118,117,121,121,121,121,120,119,119,120,122,119,121,106,120,121,124,121,119,120,115,127,122,121,117,116,119,116,121,122,122,121,123,123,122,122,121,121,120,121,123,124,122,119,122,123,122,119,121,123,128,122,120,120,122,118,119,111,102,117,119,120,118,120,125,122,121,118,119,131,124,121,121,121,118,122,121,113,118,117,119,118,115,119,117,142,128,123,124,125,126,122,131,75,114,119,117,119,125,120,106,160,132,125,124,120,113,122,131,66,105,117,121,123,123,115,106,140,128,123,123,123,121,119,127
121,123,119,125,127,126,120,121,148,125,125,109,110,122,124,123,107,114,118,121,120,113,115,112,136,128,121,123,124,123,126,127,121,123,122,125,124,123,122,123,108,119,120,123,122,119,120,115,125,121,119,116,116,125,125,124,125,125,124,125,123,121,116,117,121,121,119,125,124,121,120,118,124,122,125,120,119,126,123,123,121,121,121,125,122,121,118,119,127,122,120,119,117,114,120,121,111,121,121,124,124,122,123,119,137,125,122,119,122,119,117,123,66,107,116,114,114,116,116,103,167,136,125,126,125,127,125,140
49,105,118,120,121,119,117,102,140,128,123,123,123,127,122,127,125,122,121,122,122,120,119,121,120,122,121,122,121,121,120,119,120,121,121,122,121,121,122,121,119,120,121,122,121,122,122,121,121,122,120,121,121,121,122,120,119,120,120,122,122,121,121,119,121,123,124,122,120,120,121,121,121,121,123,122,122,122,121,120,120,120,115,119,118,119,119,119,121,123,123,123,120,120,120,121,121,123,126,125,128,123,121,118,121,123,127,124,117,122,126,125,119,120,107,121,126,113,114,110,119,118,117,114,105,111,119,124
122,125,128,127,133,131,126,124,119,122,123,126,124,120,118,117,119,120,121,122,119,117,118,117,120,121,121,122,121,123,122,121,121,121,123,120,120,120,121,121,120,123,124,123,117,120,121,119,120,121,121,124,126,124,118,117,118,117,108,117,128,124,123,117,121,124,126,123,120,121,122,122,120,120,119,120,121,121,119,116,120,121,117,118,115,117,120,113,120,122,123,123,123,121,121,122,121,122,122,123,122,122,122,121,121,122,121,122,123,121,122,121,122,122,121,119,116,119,121,124,122,122,121,122,121,122,121,120
119,121,122,122,119,121,121,114,120,121,121,120,123,121,120,122,122,122,121,119,118,121,122,122,118,121,120,122,118,120,117,115,123,123,123,123,122,123,124,123,122,122,120,121,119,120,123,128,120,122,120,119,116,120,119,117,118,121,122,122,122,120,120,116,124,121,121,123,125,122,125,130,121,122,122,123,113,120,121,120,121,122,121,122,125,120,119,114,125,121,123,124,124,124,124,124,123,122,120,123,122,121,121,127,119,122,120,123,121,120,120,116,121,120,120,122,123,122,122,123,118,121,121,123,122,121,119,116
121,122,122,123,124,123,123,118,121,122,121,121,120,120,120,120,121,121,120,121,122,121,123,124,119,121,121,123,122,120,120,115,120,123,121,120,119,121,119,119,121,120,121,122,121,120,122,122,120,121,121,122,122,121,120,118,122,122,122,122,122,122,122,123,121,122,121,121,121,121,123,122,120,121,120,121,121,121,121,118,121,121,121,122,122,121,122,125,120,122,121,122,120,120,121,119,120,121,121,122,120,120,120,117,120,122,122,123,123,121,122,120,119,120,120,120,120,120,120,119,122,121,121,122,121,121,123,130
116,121,122,124,123,122,118,109,121,121,120,123,124,121,122,123,121,122,119,118,118,119,121,123,120,121,121,122,122,121,124,123,120,121,121,123,122,120,119,120,120,121,121,122,121,122,123,119,120,121,121,122,122,121,116,121,121,123,120,122,121,121,122,122,119,118,120,122,121,120,121,118,121,123,121,121,121,121,122,123,122,123,121,122,121,121,122,120,120,121,122,122,121,120,119,117,120,121,121,121,121,121,122,120,121,121,121,122,122,121,120,119,120,121,120,121,120,120,122,122,120,121,120,121,121,121,119,119
121,122,120,121,121,121,120,118,116,117,120,122,121,121,123,122,124,124,121,122,122,121,118,121,115,119,120,122,121,122,122,117,124,122,122,122,121,122,121,121,121,121,120,122,121,121,122,120,121,120,120,122,121,122,123,124,120,121,121,121,121,122,124,121,121,122,121,122,121,121,119,119,119,121,120,121,121,121,121,118,114,118,120,122,122,122,121,119,123,122,121,122,121,121,123,122,122,123,121,121,121,122,124,121,120,121,121,122,121,121,121,121,120,121,121,121,121,121,122,121,120,120,121,122,121,121,121,120
120,121,121,121,121,121,123,121,121,122,121,122,121,120,121,120,123,123,121,122,122,121,121,120,118,121,121,122,121,121,121,120,119,119,120,122,121,120,120,119,123,123,122,122,121,120,121,121,121,122,121,122,122,122,121,120,120,122,121,121,120,121,124,121,122,122,121,122,120,120,117,123,120,121,121,121,121,122,123,120,120,121,120,121,120,121,121,118,121,121,120,121,121,121,121,123,120,122,121,121,121,121,124,124,123,122,121,123,122,121,121,124,116,122,121,122,120,120,118,109,122,121,120,121,121,120,121,124
121,122,121,122,122,121,121,119,121,121,121,122,122,121,122,120,120,118,120,121,120,121,121,121,121,124,121,122,121,122,122,121,121,123,122,122,120,120,122,120,121,123,122,122,121,120,120,120,120,119,120,121,121,121,122,120,121,122,121,122,121,120,119,117,121,122,121,121,120,120,121,122,120,121,121,122,122,121,121,121,122,122,121,122,121,121,122,121,119,121,121,122,121,121,121,118,117,120,121,121,120,121,123,120,122,123,121,122,122,121,120,118,120,119,120,122,121,121,122,119,121,121,120,121,121,121,122,121
120,122,121,123,121,121,122,121,121,121,121,122,122,121,121,121,120,122,121,122,122,121,121,117,122,122,121,122,121,122,122,122,120,122,121,122,122,122,121,121,121,122,122,122,120,120,120,119,120,120,121,122,122,121,120,119,123,123,122,122,121,122,122,123,121,122,121,121,120,121,121,119,121,121,121,122,121,121,121,121,119,122,122,122,120,120,120,120,115,118,120,121,121,121,120,115,123,122,120,122,121,121,123,124,120,122,121,122,121,120,119,118,120,120,120,121,121,121,120,119,121,122,121,122,120,120,121,121
122,123,122,122,121,121,122,120,119,120,121,122,121,121,121,120,120,121,121,122,121,119,120,122,121,121,122,122,121,121,122,123,120,123,121,121,120,120,117,115,122,122,121,122,121,121,122,123,121,122,121,121,121,120,120,122,119,120,121,122,121,121,121,116,120,121,121,122,121,121,122,123,122,122,122,122,122,122,121,121,120,122,121,122,120,120,120,120,119,120,121,122,122,121,121,120,121,123,122,122,120,121,120,120,119,121,121,121,121,121,123,121,121,122,121,121,120,121,121,120,121,121,121,122,121,121,122,121
121,121,121,122,121,121,121,121,121,121,121,121,121,122,122,121,123,123,122,122,121,121,122,121,113,119,119,120,120,120,120,118,123,123,121,121,121,121,121,123,121,123,121,122,121,120,121,120,120,118,120,121,120,120,121,119,122,123,122,123,121,120,122,122,120,123,122,122,120,121,120,119,120,119,119,121,121,121,122,120,122,122,120,122,121,121,122,122,122,123,122,122,121,121,122,121,120,121,120,121,121,121,121,119,121,122,121,121,120,121,121,121,119,121,120,121,121,121,120,119,121,122,121,122,122,122,123,123
120,121,121,121,121,121,121,121,121,121,121,122,122,121,122,120,121,122,121,121,120,121,119,119,121,122,121,121,121,122,125,121,119,120,120,121,121,121,121,120,120,121,121,122,121,121,120,119,121,121,120,121,121,121,121,121,120,121,121,122,121,121,122,121,120,122,121,122,122,121,122,119,122,121,121,122,121,121,121,122,114,119,120,122,122,122,122,116,122,121,121,121,120,120,120,119,121,121,122,121,121,120,121,122,121,122,122,122,121,121,122,121,121,122,121,123,121,121,121,120,125,122,121,122,121,122,122,122
113,122,120,121,121,121,120,117,122,117,119,121,121,121,120,120,122,123,120,121,121,121,122,120,122,124,121,121,121,121,122,122,121,121,121,122,122,120,120,120,120,121,120,121,121,121,122,120,121,121,121,122,121,122,122,126,119,121,120,121,121,121,120,113,120,121,120,121,121,121,122,122,122,122,121,122,122,121,120,122,121,122,121,121,121,121,122,121,121,121,120,121,121,121,121,122,121,122,122,122,121,120,120,120,121,122,121,121,121,121,122,119,121,122,121,122,121,122,121,120,121,122,121,122,121,120,120,120
121,121,120,121,121,121,121,120,120,120,120,122,121,121,120,121,119,121,121,122,121,120,121,121,120,121,120,121,121,122,125,121,120,122,120,121,121,121,121,118,121,121,121,122,121,121,122,122,120,121,121,122,121,120,121,120,122,122,122,122,121,121,121,120,120,121,120,122,121,121,122,124,118,120,121,122,121,120,119,115,122,121,120,121,121,121,121,121,122,122,120,121,120,121,121,120,121,122,121,121,120,121,121,120,120,121,121,122,122,121,121,120,121,121,122,122,120,120,121,119,121,121,121,122,121,121,120,122
119,121,121,122,121,121,121,116,120,122,120,121,120,120,122,118,121,121,121,122,121,120,120,120,120,121,121,122,120,120,121,120,121,122,121,123,122,121,122,122,121,123,122,122,121,120,121,121,120,121,120,121,120,121,121,118,123,121,121,122,122,121,121,121,118,121,120,122,121,121,121,120,122,122,121,122,121,121,121,118,122,122,121,122,121,120,121,122,121,121,120,121,121,121,122,121,120,121,121,122,121,121,121,121,121,122,121,122,121,120,121,121,121,122,121,121,121,121,121,120,120,121,120,121,121,121,121,121
121,122,121,122,121,120,120,120,120,121,121,122,121,121,121,120,121,121,120,121,120,121,123,122,121,121,121,121,120,120,120,120,120,121,121,122,121,121,121,120,121,122,121,122,121,121,121,120,120,121,121,122,121,121,123,121,119,120,121,122,121,121,120,119,122,122,120,121,121,121,121,121,120,122,121,122,122,120,121,119,121,119,120,122,121,121,121,121,122,123,122,122,121,121,123,120,117,121,121,122,120,120,122,121,123,123,121,121,120,120,121,122,121,121,121,122,122,121,121,120,121,122,121,122,121,121,122,121
120,121,121,122,121,121,121,120,119,119,120,121,121,121,122,120,121,123,122,122,121,120,119,119,121,122,121,122,120,121,122,121,120,122,121,122,120,120,121,119,121,122,121,122,122,121,122,120,120,121,121,122,121,121,122,122,120,122,121,122,121,121,120,117,120,120,120,122,121,121,122,122,119,120,121,121,120,121,121,120,120,122,121,122,121,121,122,120,121,122,121,122,121,121,121,120,121,122,122,122,122,122,121,120,119,121,121,122,121,121,121,120,120,119,119,121,121,121,122,119,122,122,120,122,121,121,124,125
121,122,122,122,121,120,121,119,119,121,121,122,121,121,120,117,120,121,121,122,121,121,121,119,121,122,121,121,120,120,120,122,121,121,121,121,121,122,123,121,120,121,121,122,122,122,122,120,121,122,121,122,121,120,120,119,120,120,121,122,121,121,121,121,121,121,121,122,122,121,120,119,122,123,122,122,121,121,122,122,121,123,121,121,121,121,121,119,120,119,120,122,121,121,121,121,119,120,120,122,121,122,122,121,121,122,121,122,121,120,120,120,122,122,122,122,122,122,122,120,122,122,121,122,121,120,121,122
118,120,120,122,121,121,119,111,119,120,121,122,122,122,124,123,122,123,122,122,120,120,121,120,121,121,121,122,121,121,122,121,119,120,121,121,121,121,122,119,121,122,121,123,121,121,120,119,121,122,121,121,121,121,121,121,121,122,121,121,120,120,121,121,121,121,120,121,121,121,122,122,120,122,121,122,121,120,121,120,122,122,122,122,121,121,120,121,120,122,122,122,121,121,122,121,119,118,120,121,120,121,122,121,121,123,121,123,121,120,120,118,119,122,121,122,121,120,119,117,119,121,120,121,121,122,120,116
122,122,122,122,121,120,122,124,120,121,121,122,121,121,121,122,120,121,121,121,121,121,122,121,121,122,121,122,121,120,120,118,121,122,120,121,121,121,124,123,120,122,121,121,121,121,121,118,121,121,120,122,121,121,122,121,121,122,122,122,121,120,121,120,121,121,121,122,122,121,121,121,120,121,120,122,121,121,121,119,123,122,122,122,120,120,121,121,114,120,121,122,121,122,121,121,123,122,121,121,121,121,122,123,121,123,121,122,122,121,120,118,123,120,120,121,121,121,122,123,119,122,121,121,121,121,122,121
122,123,122,123,121,120,121,120,122,123,122,122,121,121,122,123,119,121,121,122,121,121,120,118,120,120,121,122,121,122,121,120,121,123,121,121,120,121,119,118,122,122,120,121,121,121,123,122,120,121,122,122,120,120,120,120,118,120,121,122,121,121,120,118,122,122,121,122,120,120,122,122,119,121,121,122,121,121,121,117,121,121,121,123,122,122,121,121,120,121,121,122,122,120,120,120,121,121,120,121,121,121,121,121,118,119,120,122,121,122,122,119,121,122,121,122,122,120,119,120,121,122,122,121,121,120,121,123
121,123,121,121,120,121,123,119,120,120,120,122,121,120,121,120,121,123,121,121,121,122,123,122,120,120,122,122,121,121,122,120,120,121,121,121,121,121,121,120,121,121,121,122,122,121,121,120,121,122,122,122,121,121,121,121,122,122,121,122,121,121,122,121,115,120,121,122,121,120,119,117,122,121,121,121,121,121,122,123,121,122,121,122,121,122,121,119,121,122,121,121,120,121,121,121,122,122,121,122,121,121,122,122,121,122,122,121,121,121,122,121,118,121,121,122,121,120,119,119,121,121,121,122,121,122,122,121
122,121,120,121,121,121,121,120,119,120,120,121,121,121,122,119,122,122,121,121,121,121,123,122,119,121,121,121,120,121,121,119,121,122,121,121,121,121,119,122,121,122,122,122,121,121,123,121,121,122,122,122,120,121,122,125,119,121,121,122,121,120,122,119,120,122,121,122,121,122,121,119,121,121,121,122,122,122,121,120,120,122,121,122,121,121,122,120,120,121,121,122,120,120,121,121,120,121,120,122,121,121,121,120,121,122,120,121,121,121,122,121,119,118,120,122,121,121,122,120,120,122,121,122,121,121,121,122
122,122,120,121,121,121,122,120,119,121,121,121,120,121,121,118,122,122,121,122,121,121,122,121,123,123,121,121,121,121,123,123,121,121,120,122,121,121,123,122,120,120,121,121,121,119,116,121,120,121,121,121,121,121,123,119,122,122,121,123,122,122,122,121,121,122,121,122,121,120,120,119,120,121,120,122,121,121,121,121,120,122,121,122,122,121,121,120,121,121,120,121,120,121,121,120,119,121,121,122,121,120,120,118,120,122,121,122,121,121,121,120,121,122,121,122,122,121,121,121,120,123,122,122,122,122,121,119
120,119,120,121,120,121,121,121,120,121,120,121,121,121,122,120,121,122,122,121,121,121,121,120,121,122,122,123,121,121,122,123,121,122,121,121,121,121,122,120,120,122,121,121,121,121,124,119,121,120,120,121,121,121,122,123,120,122,121,121,120,120,121,120,121,122,121,122,122,121,122,122,121,122,122,122,120,120,121,117,123,122,121,122,121,120,119,119,120,122,121,122,120,120,122,121,117,119,119,121,121,121,122,120,121,122,121,122,122,120,120,120,122,123,121,121,121,121,122,122,121,121,120,122,121,121,121,121
121,121,121,122,121,122,121,122,119,121,121,122,121,120,120,117,120,120,120,121,121,122,124,121,121,121,120,122,121,121,122,120,121,123,122,122,120,121,121,121,121,122,122,121,121,121,122,121,121,122,121,122,122,121,121,119,119,119,119,121,121,121,121,121,121,122,122,122,120,121,121,121,121,123,121,121,121,121,121,120,121,120,120,121,121,121,122,120,120,120,121,121,121,121,121,120,121,122,121,122,120,120,121,122,121,122,121,122,121,121,123,121,120,122,121,122,121,120,122,120,120,120,120,121,121,121,121,121
118,120,121,122,121,121,121,120,120,121,121,122,122,121,121,120,121,121,120,121,121,121,121,121,121,121,121,122,121,122,121,120,115,119,120,121,121,120,119,119,121,121,121,122,121,121,121,120,119,121,121,122,121,122,121,117,121,121,121,121,121,121,122,121,122,122,120,121,121,121,122,121,120,120,120,121,121,121,120,120,121,123,121,121,120,120,122,121,121,123,122,123,121,121,121,120,120,119,121,122,121,121,121,120,120,121,120,121,120,121,121,120,121,122,122,122,121,120,121,120,120,122,121,122,121,122,120,120
118,120,120,122,121,121,122,120,121,122,121,121,120,121,121,120,121,121,120,121,121,121,122,120,119,121,121,122,121,120,120,120,121,121,121,122,122,122,122,120,118,122,121,122,121,121,122,120,120,120,120,121,120,120,120,121,120,121,121,122,121,121,120,121,119,122,122,121,120,120,120,115,121,122,121,121,120,121,123,121,121,121,121,122,121,121,120,119,121,122,121,121,120,121,121,121,119,122,121,122,121,121,121,118,123,120,121,123,122,121,121,121,118,122,120,121,121,121,121,119,122,123,122,122,120,120,121,124
121,122,122,122,121,120,122,118,121,121,121,122,121,121,121,117,120,121,120,121,121,121,122,123,120,121,120,122,121,121,123,119,121,123,121,121,120,120,118,121,120,120,121,122,121,121,120,120,122,122,121,122,122,122,123,120,120,120,120,121,121,121,121,120,121,122,122,122,120,120,121,122,122,122,121,121,121,121,122,121,120,122,121,121,121,120,120,116,120,120,120,121,120,120,120,120,122,123,122,122,120,121,121,118,120,122,121,122,121,122,120,121,120,119,120,121,121,121,120,121,121,122,120,121,121,121,123,119
121,123,121,121,121,121,122,121,120,121,122,125,122,121,122,117,122,122,120,121,121,121,122,123,120,121,122,122,121,121,122,119,120,121,121,122,122,121,119,120,121,122,121,121,120,121,122,122,121,122,122,122,120,120,122,122,122,123,122,123,121,122,121,121,121,119,120,122,121,121,121,119,117,121,121,122,121,120,120,120,123,123,122,122,121,120,121,121,121,121,121,122,121,120,120,119,121,121,121,122,122,121,121,120,121,123,121,121,120,120,121,122,121,122,120,121,121,120,119,120,119,121,121,122,121,121,121,119
122,122,121,122,121,121,122,122,120,121,120,122,121,121,121,119,120,123,120,122,121,121,121,119,121,119,121,122,120,120,121,121,119,120,120,122,121,121,121,119,122,122,121,122,122,121,122,121,122,123,121,121,121,121,119,122,120,122,121,121,120,120,120,118,121,122,122,121,121,121,122,121,120,122,121,123,121,120,120,120,120,121,120,122,121,121,122,120,122,123,122,122,121,120,121,121,120,120,121,122,121,120,121,121,120,121,121,122,121,121,121,120,120,122,121,122,122,121,121,119,121,121,120,121,121,121,121,121
121,122,121,122,122,121,121,120,123,123,121,122,121,121,122,122,111,117,120,122,121,121,120,116,122,122,120,121,121,121,121,121,122,122,122,121,120,121,121,120,120,121,121,122,121,122,122,121,120,120,121,121,121,121,121,120,121,123,122,122,121,121,121,123,119,121,121,122,121,121,119,116,121,122,121,121,121,121,121,122,121,122,121,122,121,120,122,122,121,121,121,122,121,121,122,122,121,122,121,122,121,121,121,121,122,122,120,121,121,121,121,120,119,120,121,122,122,121,121,119,120,120,120,122,121,121,120,119
121,123,121,121,121,121,122,121,120,121,121,122,121,121,120,119,120,121,121,122,120,120,119,120,120,121,120,122,121,123,124,122,119,120,120,121,121,121,120,117,120,121,120,121,121,121,120,120,121,121,120,121,121,121,122,122,122,122,122,122,121,120,122,122,117,121,120,122,121,121,120,118,121,121,121,122,121,121,122,120,121,122,121,122,120,120,118,119,121,121,121,121,121,121,121,121,120,122,121,121,121,121,122,118,121,121,121,122,121,122,122,121,119,120,120,121,121,122,122,120,122,122,122,122,120,120,121,122
119,121,121,122,121,122,122,118,121,121,121,122,121,121,121,120,121,121,120,122,121,121,121,120,122,122,121,121,121,121,122,123,119,121,121,122,121,120,122,118,120,121,120,122,121,121,121,119,121,121,121,122,121,122,121,123,121,122,122,122,120,120,121,120,120,122,121,122,122,122,122,120,120,119,120,122,120,121,121,120,120,122,122,122,122,121,121,120,121,121,121,122,121,121,122,120,121,122,120,121,121,121,121,120,120,121,121,122,121,121,122,121,119,122,122,123,121,120,116,114,123,122,121,122,121,120,122,122
118,121,120,121,121,123,123,121,121,118,120,122,121,121,122,121,121,123,121,122,121,120,120,120,120,121,121,122,122,121,121,120,123,122,120,121,121,120,120,120,119,121,121,122,122,121,123,122,121,121,120,122,121,121,120,118,122,122,122,121,121,121,121,121,121,121,121,122,121,121,121,120,121,122,121,121,121,121,121,117,121,122,120,121,121,121,118,121,120,120,121,122,122,121,121,120,122,123,121,121,120,121,122,120,120,122,122,122,121,120,121,121,121,120,120,121,121,122,123,121,120,122,120,121,121,120,118,120
119,120,120,121,121,121,122,118,122,122,122,122,121,121,123,121,120,121,121,121,121,121,122,121,120,121,121,122,121,121,122,120,121,121,121,122,121,121,122,121,120,121,121,122,122,120,120,119,120,122,121,122,121,120,121,119,121,121,121,122,121,120,121,120,121,123,121,122,122,122,121,121,120,120,121,122,122,121,120,119,120,121,121,121,121,121,121,120,120,122,121,122,122,121,120,120,118,120,120,121,121,121,121,120,122,123,122,122,121,121,122,121,120,121,121,121,121,121,121,120,121,121,120,121,121,121,121,121
121,121,120,121,120,121,122,120,121,121,121,121,120,121,122,122,121,122,121,122,121,121,121,119,120,121,121,122,122,121,121,121,121,121,120,121,121,121,121,121,121,121,121,121,120,121,122,120,120,121,120,121,121,121,121,119,121,123,122,122,120,121,121,121,120,121,121,122,120,120,121,121,121,121,120,121,121,121,120,120,121,123,122,122,121,121,123,120,121,122,121,121,121,120,121,121,120,122,121,121,120,121,122,122,120,120,120,122,121,121,121,120,121,122,121,122,122,121,121,119,120,121,121,121,121,121,121,122
120,120,120,121,121,121,122,121,121,122,121,122,122,122,122,120,121,121,121,122,121,121,121,122,120,122,122,123,122,121,123,119,119,119,120,121,121,121,120,119,121,121,121,122,121,121,121,121,122,122,120,121,121,121,122,121,121,122,121,121,121,121,122,120,120,122,121,122,120,119,118,120,120,121,120,122,121,122,121,116,121,122,121,122,122,121,121,120,122,122,121,121,120,121,121,120,121,122,121,122,121,121,122,122,120,121,121,122,121,120,120,120,121,121,121,122,121,120,120,118,121,122,121,121,120,120,121,121
121,121,121,122,121,121,122,120,119,121,121,122,121,121,122,119,121,122,121,122,121,121,120,122,121,122,122,122,121,120,121,120,120,122,122,122,120,121,119,121,119,121,121,121,121,122,123,120,120,122,121,122,122,121,120,118,121,122,121,121,120,121,122,119,120,121,121,122,121,121,121,121,120,122,121,122,121,120,120,120,120,121,121,122,121,120,121,121,122,122,120,121,121,121,120,118,120,120,120,122,121,121,122,122,119,121,121,122,122,121,120,119,119,122,121,122,121,121,121,119,120,119,120,122,121,121,118,118
120,122,121,121,121,121,121,119,121,121,120,121,121,121,121,119,121,120,120,121,121,121,122,121,121,122,121,121,121,121,121,123,121,122,121,121,121,121,121,121,121,120,121,122,121,120,120,120,120,122,121,122,122,122,123,120,120,121,120,121,120,120,119,120,121,122,122,122,122,121,119,119,120,122,121,122,120,120,121,121,120,120,120,122,122,121,122,120,121,121,121,122,121,121,122,122,121,121,121,122,121,120,120,121,121,122,121,122,121,121,120,119,120,122,121,122,120,121,122,121,122,123,121,122,121,121,121,121
121,124,121,121,120,120,121,119,121,117,119,121,121,121,122,122,121,123,122,121,120,121,121,119,122,123,122,122,121,122,122,122,120,121,120,121,121,121,122,121,121,121,120,121,121,121,120,120,120,121,121,122,122,121,122,120,120,121,120,121,121,121,122,120,121,122,121,122,122,121,121,121,120,122,121,121,120,121,119,118,120,121,120,121,121,121,122,122,120,120,121,122,121,121,122,120,120,122,122,123,121,121,121,121,120,121,121,122,121,121,121,121,121,121,120,122,121,121,122,121,120,122,121,121,121,121,121,120
120,120,120,121,120,121,122,119,121,122,121,122,121,121,122,121,120,119,119,121,121,121,121,121,121,122,122,122,120,121,121,121,120,121,121,122,121,121,120,120,121,122,122,121,121,121,121,120,120,123,120,122,121,121,119,120,121,119,120,121,121,121,122,121,121,122,121,122,121,121,121,120,122,123,121,122,122,122,122,122,121,122,121,122,121,120,120,120,119,121,121,122,121,121,122,120,121,121,121,121,120,120,121,119,117,120,121,122,121,120,119,118,121,121,121,122,120,120,122,121,120,122,121,122,122,121,121,119
121,121,121,121,120,121,121,120,121,122,122,122,121,120,120,120,122,123,121,122,122,121,122,121,118,118,119,121,121,121,122,120,120,121,120,121,121,121,122,120,119,121,120,122,121,121,120,119,121,121,121,122,121,122,122,121,120,121,121,121,121,121,121,120,121,121,121,122,122,122,123,121,118,121,121,122,121,120,121,117,122,122,121,121,120,120,118,122,121,122,121,122,122,120,121,120,121,122,122,121,120,120,121,122,121,122,122,122,120,120,121,121,119,120,120,122,121,122,124,118,120,121,121,121,121,121,122,120
120,121,120,121,120,121,121,119,120,122,122,122,121,121,120,122,120,121,121,122,121,121,122,121,122,124,121,122,122,122,122,119,118,117,120,121,121,121,121,119,120,122,121,122,121,120,121,121,120,122,121,122,121,121,121,119,121,121,121,122,121,120,120,120,121,121,120,121,121,121,122,118,120,121,120,121,121,121,121,120,121,122,121,122,121,121,119,119,120,121,121,122,122,122,122,124,119,121,121,122,122,121,120,118,121,122,121,122,122,120,121,120,121,122,121,122,122,121,122,122,121,121,121,122,122,121,120,120
120,122,120,121,121,121,120,118,121,122,122,122,121,122,122,121,121,121,120,121,120,120,121,121,121,122,121,122,120,121,122,121,121,122,121,122,121,121,121,124,121,122,122,122,122,121,122,119,119,119,120,122,121,120,120,118,120,121,121,122,121,122,121,120,121,122,121,122,121,121,122,120,119,122,121,122,121,120,119,120,121,119,120,121,121,122,123,122,121,123,122,122,120,121,121,120,121,122,121,121,121,121,123,124,120,122,121,122,120,120,119,119,121,122,121,122,121,120,121,120,121,122,121,122,120,121,121,120
121,122,120,121,121,121,122,121,120,121,121,122,121,122,124,121,121,121,121,122,122,122,121,121,120,121,121,122,122,121,121,120,121,121,120,121,121,121,121,121,121,122,121,121,120,120,121,120,121,121,120,122,121,121,121,121,120,121,121,122,121,120,120,119,121,122,120,121,121,121,122,121,120,121,121,122,121,121,121,119,121,122,121,122,121,120,121,120,120,122,121,123,121,121,121,120,121,122,121,121,121,121,122,121,119,118,119,121,121,121,121,120,120,122,121,121,120,120,121,121,121,122,121,122,122,122,121,119
120,122,121,122,121,121,122,120,120,121,121,122,121,121,120,118,120,120,120,121,121,121,122,121,122,123,121,121,121,121,119,121,119,120,121,122,121,121,120,120,120,121,121,122,122,121,119,120,120,121,121,121,120,121,122,118,121,122,120,121,121,121,121,121,121,120,120,122,122,121,121,120,122,122,121,121,121,121,121,121,122,122,120,121,121,121,121,120,120,122,121,122,121,121,121,119,119,119,119,121,121,121,122,120,121,122,121,121,121,121,122,121,122,123,122,121,120,120,121,121,120,120,120,122,121,121,122,120
121,121,121,121,120,120,121,120,119,122,121,122,121,121,122,117,121,121,121,122,122,120,120,120,121,122,121,122,121,120,121,121,121,122,121,121,121,121,122,120,119,117,119,121,121,121,121,120,121,123,121,122,122,121,124,123,120,121,121,122,121,121,121,121,121,121,121,122,121,122,121,121,121,122,122,122,121,120,121,120,122,123,122,123,122,121,121,121,118,119,120,122,121,121,121,117,119,120,120,122,121,121,122,122,122,123,122,122,121,121,122,124,120,120,121,122,122,121,120,118,120,121,120,121,121,121,121,119
120,121,121,122,121,121,121,121,120,121,121,121,121,121,122,120,120,121,121,122,121,121,121,121,121,122,122,123,121,121,120,121,121,122,121,121,120,121,122,119,120,121,120,121,121,121,120,119,121,121,121,122,121,120,120,119,121,122,122,122,121,121,120,121,120,121,121,122,122,121,120,120,120,122,121,122,122,121,119,120,121,121,120,121,121,121,122,120,120,121,120,122,121,121,120,118,121,121,121,122,122,121,120,119,121,123,121,122,121,121,122,121,120,119,120,121,121,121,121,120,120,120,120,122,120,120,121,121
121,123,122,122,122,122,123,120,120,122,121,122,122,121,121,121,121,122,121,122,120,121,122,121,121,121,121,122,121,121,121,121,118,121,121,122,122,121,121,117,121,121,121,121,121,121,121,120,120,122,121,122,121,120,121,121,121,121,121,122,121,121,122,118,121,120,120,122,121,121,123,122,118,119,120,122,121,121,121,120,121,122,121,122,121,122,122,122,121,121,121,122,122,120,119,117,120,121,121,122,121,122,121,121,121,121,121,122,121,120,123,121,121,122,121,122,120,121,121,121,120,122,122,121,121,121,120,120
121,121,121,121,121,121,121,119,121,122,121,122,120,121,121,120,120,121,121,121,120,121,121,120,121,121,121,122,121,120,120,120,121,122,120,122,121,121,121,121,120,122,120,121,121,121,121,119,121,120,121,122,122,121,121,121,120,123,121,122,121,120,120,119,121,122,122,122,120,121,120,121,122,122,120,121,121,121,123,122,119,120,121,122,121,121,121,120,118,120,120,122,122,122,122,119,122,123,121,122,121,121,120,119,121,121,121,122,121,121,122,121,119,120,120,121,121,121,122,120,122,123,121,122,121,121,123,121
120,121,121,122,121,121,119,119,119,121,121,122,121,120,121,119,122,122,120,121,121,121,122,121,120,121,120,121,121,121,123,120,121,121,120,121,121,121,122,121,120,121,120,121,121,121,121,119,121,121,120,121,121,121,121,121,121,121,120,121,121,121,121,121,121,122,120,121,121,121,121,120,121,122,121,122,121,120,120,120,121,122,121,121,120,121,120,120,120,121,121,121,120,120,121,120,121,122,121,122,121,122,123,121,121,122,121,122,121,121,120,120,121,122,121,121,121,121,122,121,121,123,122,122,121,120,120,120
121,119,119,121,121,121,121,122,119,122,121,122,121,121,117,116,120,121,121,122,122,121,121,121,121,122,122,122,121,120,120,120,120,121,121,122,121,121,121,120,122,122,122,122,121,121,122,121,120,122,121,122,121,122,121,116,119,121,121,122,121,120,121,121,119,120,121,122,121,121,122,120,121,121,121,122,121,122,122,121,122,121,120,121,121,121,121,121,120,121,121,122,121,121,121,120,121,122,121,121,120,121,121,119,120,122,122,122,121,120,119,116,121,122,121,122,121,122,122,123,121,120,120,121,121,120,120,121
121,123,121,121,120,121,121,120,121,122,121,122,121,121,121,120,121,121,121,122,121,121,121,119,119,120,121,122,122,121,122,119,118,119,120,121,120,121,121,119,122,123,121,121,121,121,121,120,121,122,121,122,121,120,120,122,120,122,122,123,121,121,120,117,120,122,121,122,121,122,121,121,120,120,121,122,122,121,121,121,122,122,121,122,121,120,120,121,119,121,121,122,121,121,120,118,120,120,120,121,121,121,123,120,121,121,120,121,121,120,120,120,120,121,121,122,121,121,122,121,121,122,121,121,121,121,121,122
120,120,120,122,121,121,122,121,120,122,121,122,121,121,121,120,120,121,121,122,122,121,120,120,120,121,120,122,121,121,122,119,120,120,121,122,120,120,121,120,121,121,121,122,121,121,122,120,120,123,121,121,120,121,120,121,120,120,120,122,121,121,122,120,121,122,121,123,122,121,122,121,119,122,121,122,121,121,119,118,120,122,121,122,121,120,121,120,121,121,121,122,121,122,121,120,121,122,122,122,120,120,121,121,121,122,121,122,121,121,122,122,120,121,120,122,121,122,122,119,120,121,120,122,121,122,121,118
121,121,121,122,121,123,126,122,121,121,120,122,121,121,121,120,121,122,121,122,121,120,121,120,121,121,121,122,121,121,122,121,121,121,121,122,122,121,121,120,119,120,120,122,122,121,120,120,121,121,121,122,121,121,122,122,119,120,121,122,121,121,121,118,120,121,121,122,121,121,121,121,120,122,121,122,121,121,121,119,121,122,121,123,122,121,121,121,119,120,120,121,121,121,122,120,121,122,121,121,120,120,121,119,120,121,121,122,121,121,121,119,121,122,122,123,121,121,122,122,120,122,121,122,121,121,122,120
120,121,121,122,121,119,119,120,119,121,120,121,120,121,119,117,121,123,122,121,120,121,123,124,117,119,121,122,121,121,119,114,121,120,120,121,121,121,122,122,122,123,122,122,121,120,121,121,121,123,122,122,122,121,121,120,121,123,122,123,121,121,121,122,119,119,121,122,121,121,121,120,122,121,119,121,121,121,122,122,119,119,119,121,121,121,120,118,120,122,122,123,122,122,122,118,121,123,122,122,121,120,121,122,123,121,121,121,120,120,117,123,115,115,118,120,119,118,118,115,124,127,123,122,120,124,123,119
124,124,123,124,122,123,129,128,121,120,119,121,123,121,119,122,117,120,121,120,113,121,122,129,121,124,124,128,127,123,114,100,121,122,121,123,123,123,131,137,124,123,122,123,119,121,108,121,115,121,120,122,121,119,114,107,121,119,122,123,122,123,129,128,123,123,118,111,108,119,118,117,126,123,123,129,127,129,114,130,119,120,120,122,132,123,123,122,122,122,121,121,118,122,132,124,121,122,121,122,120,120,95,125,122,125,124,124,117,119,110,100,124,122,122,125,124,117,137,137,118,121,120,121,107,116,105,113
115,118,117,120,120,111,92,79,125,125,124,124,119,121,129,128,114,116,117,123,126,125,122,115,118,120,121,122,121,118,117,126,127,125,124,125,125,143,147,137,120,120,121,121,120,118,100,127,106,122,122,123,125,120,121,80,131,123,122,119,114,126,128,136,124,122,120,122,125,127,139,131,117,121,121,123,124,128,144,127,127,121,122,133,137,133,131,145,120,120,118,117,115,113,114,133,124,124,124,129,132,114,100,113,127,121,120,120,119,123,121,132,122,121,120,121,121,118,121,169,115,121,121,121,120,124,120,133
124,120,120,117,111,112,99,145,118,121,120,124,125,118,101,139,112,117,119,120,119,119,145,125,119,123,121,121,122,115,98,107,114,120,121,124,126,119,127,132,135,123,121,122,126,123,125,223,119,121,121,120,114,129,123,241,119,119,120,122,121,124,119,240,117,120,119,116,110,121,117,242,123,121,118,118,122,117,97,242,124,122,121,123,124,125,129,159,111,118,119,121,119,121,119,130,126,122,121,121,120,117,98,125,120,123,121,121,120,116,103,122,121,122,122,122,121,124,131,121,123,122,121,123,122,122,117,120
96,114,119,121,121,117,110,120,125,120,119,122,128,122,123,120,121,126,125,122,110,121,118,120,119,118,119,122,124,120,130,121,125,123,122,123,120,121,102,121,112,118,120,124,120,117,103,121,122,121,118,117,119,114,106,121,116,120,121,122,122,125,137,120,120,117,116,118,116,118,104,121,116,120,120,120,118,124,98,121,120,121,121,121,120,117,100,121,119,122,122,123,119,124,124,120,124,122,122,124,121,120,119,120,122,119,119,119,120,127,138,120,119,122,122,124,125,123,127,121,107,117,119,117,116,115,95,121
131,123,121,122,122,127,138,119,124,124,123,124,124,130,145,120,131,119,119,127,127,119,117,120,121,123,122,123,125,130,128,119,120,121,119,121,123,119,115,120,120,121,121,124,128,125,126,120,120,121,120,118,114,109,109,121,124,121,120,120,118,117,122,121,111,124,125,131,148,126,123,120,120,121,121,120,113,122,125,120,125,116,116,118,119,120,121,120,108,120,121,121,121,122,115,120,119,123,123,121,120,114,100,121,119,120,119,120,118,128,144,120,117,120,118,114,115,117,101,121,122,122,121,122,124,121,103,120
107,120,122,123,123,121,120,120,123,121,120,122,122,122,119,119,87,103,114,118,118,113,103,120,127,125,121,122,121,121,142,120,122,123,121,121,120,118,112,120,117,122,121,121,120,121,122,119,130,122,121,122,124,126,122,120,116,122,121,124,134,122,117,120,103,122,125,125,128,126,117,120,131,122,119,121,129,123,127,120,118,122,121,120,114,120,117,121,121,118,118,121,120,119,124,120,105,121,123,123,122,120,105,121,140,127,123,125,125,134,162,120,126,121,120,121,119,121,125,120,112,119,120,122,122,117,112,120
130,125,123,122,121,126,138,120,122,122,122,122,121,122,121,121,121,121,120,121,121,117,112,121,122,120,119,120,120,120,123,120,126,123,123,124,123,121,115,120,124,124,121,120,117,123,123,120,118,121,122,122,118,115,99,121,122,121,121,123,123,119,123,120,110,120,122,122,126,133,131,120,125,123,122,133,137,126,125,120,119,122,122,123,130,127,136,119,122,118,119,120,117,119,120,121,109,120,121,120,120,118,114,120,125,122,122,123,122,121,119,120,121,122,121,122,121,118,115,121,116,122,121,123,121,121,126,120
121,121,120,121,122,122,127,120,129,124,121,121,120,123,116,120,118,121,121,123,122,118,119,120,116,121,123,122,116,123,117,120,126,123,122,124,124,121,121,120,111,115,119,121,119,121,134,119,123,124,123,124,122,125,132,120,129,122,121,124,127,123,129,121,120,120,121,121,122,121,125,121,109,121,122,123,117,118,111,120,128,121,120,120,117,118,121,120,120,122,121,123,128,120,120,121,121,119,119,121,119,120,125,120,116,121,121,122,121,120,117,120,121,122,121,123,124,121,117,121,121,121,120,121,121,122,125,121
120,121,121,121,121,119,121,121,124,121,121,121,121,121,128,120,118,121,120,120,120,121,123,121,119,120,121,123,123,123,120,121,121,121,120,120,119,120,127,120,121,121,120,120,121,121,135,120,120,120,120,122,121,125,123,119,116,120,121,121,123,124,123,120,118,124,123,128,124,121,119,119,126,115,118,120,122,118,114,120,118,125,121,123,130,122,123,121,114,120,121,122,127,120,117,120,130,123,121,120,119,120,126,120,117,121,121,122,116,115,106,121,120,125,124,126,125,125,102,120,121,122,121,121,120,120,113,120
120,120,120,122,122,124,127,120,117,120,120,121,121,122,127,120,129,122,120,119,114,119,123,120,119,122,122,123,121,119,119,121,123,122,122,124,124,121,121,120,117,120,121,120,121,123,122,120,120,119,118,117,115,117,118,119,125,123,122,123,121,120,125,120,124,120,120,122,120,118,125,120,127,123,122,123,126,126,133,120,118,119,120,125,129,126,141,120,124,121,121,122,122,124,132,120,118,123,123,124,121,120,114,120,121,121,121,115,111,119,120,121,119,119,119,121,121,120,120,120,121,122,121,121,120,117,113,120
117,123,124,125,124,120,103,121,121,121,120,121,122,120,126,120,120,120,120,120,118,117,118,120,121,125,122,122,120,120,119,120,120,118,119,121,119,119,118,120,116,121,119,120,121,118,113,121,120,123,123,125,124,123,125,120,120,123,122,122,125,123,120,120,128,123,121,121,122,122,122,121,109,119,119,121,120,117,114,120,120,120,120,122,120,116,114,120,126,121,121,122,121,119,122,120,124,122,121,123,122,123,126,120,112,120,121,122,121,119,118,121,119,119,118,119,119,119,109,121,132,124,121,122,124,128,129,119
124,122,121,122,121,122,135,119,124,120,121,120,117,118,125,120,114,120,121,123,125,122,126,119,124,122,121,123,123,121,119,120,122,121,121,118,111,121,123,120,120,120,119,119,116,118,127,120,124,122,121,119,119,120,113,120,118,122,123,125,124,124,123,120,126,122,121,121,119,123,135,120,118,119,120,123,121,120,117,119,123,122,122,122,120,121,121,120,122,120,120,121,118,115,113,121,114,123,124,126,125,123,122,119,119,122,121,122,120,122,130,120,119,122,121,122,120,120,132,119,125,121,120,122,122,123,126,120
116,122,123,124,121,123,121,120,123,121,121,124,126,125,131,120,123,123,122,122,121,121,131,120,124,123,122,123,120,121,129,120,121,121,121,120,118,121,124,121,122,123,122,119,118,123,123,120,123,121,119,120,120,118,118,120,117,121,122,122,122,128,109,120,122,121,121,121,119,120,121,120,119,120,121,123,123,120,120,120,119,121,120,122,122,119,120,81,124,122,122,123,123,118,115,128,119,122,123,126,125,122,120,121,116,121,122,124,123,120,118,121,122,121,119,119,118,117,123,121,117,121,122,122,121,122,127,120
118,120,119,119,119,116,110,120,131,123,121,122,122,119,125,121,110,120,121,121,121,123,110,120,125,121,121,122,120,117,126,120,117,121,121,122,122,125,129,119,123,123,122,123,124,122,123,119,125,120,120,122,121,118,120,121,108,116,119,117,114,122,120,120,125,122,119,118,117,120,116,120,115,124,124,121,117,123,124,120,123,118,119,121,121,118,118,120,130,124,122,123,124,126,133,120,113,121,121,122,122,120,121,120,117,121,122,122,122,122,119,120,124,122,122,126,126,120,114,120,118,121,120,119,117,123,126,120
128,123,122,123,116,121,122,121,118,121,121,123,126,125,118,120,123,118,116,115,111,109,117,120,117,119,120,122,122,124,124,120,127,126,126,127,126,128,152,119,123,121,119,122,112,116,121,120,123,123,122,122,122,124,122,119,116,121,122,123,122,120,119,120,116,122,123,125,126,122,123,119,120,122,120,119,113,119,118,120,129,122,121,121,123,131,145,120,119,121,121,122,121,119,118,120,121,123,124,124,122,122,111,121,124,120,120,121,121,121,123,121,125,122,122,123,122,122,127,119,123,121,119,121,121,118,105,121
119,121,122,125,122,127,149,120,119,120,120,119,118,118,116,120,121,122,122,127,126,125,123,120,119,121,120,120,121,122,121,120,122,122,122,120,112,120,119,120,121,121,120,121,123,122,128,120,118,121,121,121,119,118,122,121,112,121,121,122,121,121,124,121,122,120,118,119,119,118,117,120,118,123,123,123,122,122,118,120,121,120,120,122,121,122,127,120,112,119,120,124,124,121,112,120,123,121,120,121,119,120,124,120,124,124,123,124,124,123,125,120,122,120,119,122,121,121,119,120,123,121,122,123,119,121,124,120
123,124,123,124,126,125,124,119,117,119,119,122,122,122,117,120,120,121,120,120,121,118,114,119,123,122,122,124,123,124,119,119,113,120,120,119,115,115,111,121,130,122,121,123,124,122,124,119,108,121,122,120,120,129,141,120,127,123,122,121,118,123,126,121,114,121,120,122,121,120,107,120,126,121,121,119,118,120,123,120,108,118,119,122,121,124,124,120,118,120,121,122,121,119,118,120,122,122,121,122,122,124,132,120,119,122,121,120,118,118,113,121,123,121,121,122,121,121,120,120,118,120,120,122,121,120,125,119
124,122,121,122,121,122,133,120,124,122,122,124,123,123,122,120,120,122,122,127,123,123,116,120,117,120,120,122,120,123,119,121,122,123,122,123,123,124,117,69,126,125,123,123,120,121,109,144,116,121,122,122,123,122,124,124,117,120,121,123,122,121,121,122,123,122,121,121,118,116,108,121,113,121,121,121,118,123,130,121,122,122,120,119,117,119,120,121,125,120,120,119,119,120,127,120,114,121,121,121,121,121,113,121,121,120,120,122,122,119,120,120,121,123,121,121,121,121,126,120,118,122,122,121,120,121,124,120
124,123,122,123,121,122,132,119,124,121,121,121,119,119,122,120,118,122,122,122,122,122,122,121,119,122,122,121,121,121,119,120,121,119,119,122,124,123,128,120,123,122,120,120,119,116,115,120,124,123,121,121,121,122,127,120,120,122,121,121,117,123,121,120,124,120,120,121,121,120,123,121,123,123,121,122,121,124,121,120,112,120,122,122,121,118,101,120,121,120,120,122,122,122,130,121,120,121,120,117,116,121,124,120,120,122,121,121,120,119,116,120,121,121,120,121,122,123,119,120,120,122,122,123,124,121,119,120
122,120,119,119,116,117,123,120,116,120,121,123,123,119,108,120,124,122,121,120,119,124,123,120,118,121,122,124,122,119,118,119,124,121,121,123,124,123,123,120,123,122,122,120,119,122,124,119,121,122,121,125,132,123,124,119,118,121,121,122,123,124,134,120,125,122,122,122,121,122,126,121,119,120,120,121,120,122,126,120,122,123,122,123,123,124,133,120,123,122,121,122,121,120,122,120,117,119,119,121,121,119,113,120,121,122,120,120,119,118,115,121,119,122,123,122,121,121,119,120,117,120,120,121,122,121,109,120
123,122,120,120,119,119,112,121,116,119,120,122,122,121,125,120,122,122,120,121,121,122,119,120,130,122,120,121,119,120,126,119,114,120,120,121,119,114,111,120,120,121,120,120,120,121,131,120,124,123,121,121,123,125,127,120,125,121,120,121,122,120,120,121,114,118,119,118,116,121,132,119,125,121,120,122,121,115,106,121,117,122,122,121,120,124,121,121,122,121,120,121,120,120,127,120,118,120,121,118,117,122,121,120,120,121,120,120,118,118,119,120,119,121,121,122,120,123,118,119,121,119,119,121,119,117,121,121
115,121,120,121,120,116,112,120,130,124,122,121,120,126,128,120,110,119,120,123,124,119,117,121,137,122,119,119,118,123,132,121,116,120,119,118,119,121,126,120,121,122,121,122,122,121,116,121,119,120,120,120,118,119,123,120,125,122,121,122,120,122,125,120,119,125,124,123,123,124,125,120,120,120,119,121,120,119,126,120,124,121,121,121,121,121,124,120,121,122,122,123,123,122,122,120,120,122,122,120,119,119,118,121,117,120,121,123,124,123,121,120,122,122,121,118,120,124,129,120,123,121,120,119,113,114,114,120
118,120,119,120,120,119,119,120,122,122,121,119,119,118,120,120,125,120,120,120,116,122,125,141,115,121,119,121,122,122,104,126,120,120,119,121,124,119,108,122,123,122,122,123,123,125,133,121,126,121,121,122,121,123,124,119,108,120,122,124,122,120,116,120,124,122,120,120,119,118,118,120,122,121,120,122,125,121,124,120,110,121,120,119,118,117,108,120,119,121,122,120,121,124,118,120,122,120,120,120,119,118,118,119,118,120,120,120,119,118,117,120,125,123,121,122,120,120,123,121,110,119,120,122,121,123,118,121
121,120,119,120,122,117,104,121,123,123,122,123,121,123,123,121,118,122,122,122,122,119,114,120,120,123,123,126,132,123,132,119,120,119,119,123,125,119,117,121,108,121,123,124,124,126,123,120,124,120,120,120,118,118,122,121,118,120,120,122,122,121,120,120,111,120,121,123,122,120,113,121,124,122,120,121,121,120,116,120,119,121,121,121,118,122,119,119,125,123,121,123,125,121,125,121,116,121,123,121,120,120,115,120,120,121,121,123,122,122,127,119,122,121,120,121,119,117,122,120,118,121,121,121,119,122,130,120
120,121,121,121,122,120,110,120,119,121,120,121,117,116,118,120,112,120,121,123,122,119,105,120,125,122,121,123,121,122,126,120,122,122,121,124,134,125,129,120,122,122,120,117,115,121,121,121,117,120,120,122,123,120,121,120,127,123,121,122,121,122,129,120,119,120,120,120,118,120,120,120,125,123,122,122,122,123,124,120,115,120,120,122,121,119,109,121,123,123,122,123,121,123,123,120,118,121,120,121,120,118,120,120,119,119,121,124,123,123,122,120,123,120,119,118,116,116,112,121,123,120,119,117,117,118,124,120
118,123,123,123,124,126,119,120,120,121,121,122,121,118,122,120,121,122,121,120,118,119,119,120,117,120,120,123,126,121,121,120,121,121,121,123,121,120,119,120,102,120,122,124,123,121,112,120,125,122,121,120,120,124,131,120,124,121,120,121,121,122,126,120,125,124,123,123,122,123,121,120,111,122,121,123,123,121,112,121,123,122,121,119,119,120,121,120,120,120,119,125,128,122,121,121,122,122,121,122,121,120,120,121,119,122,120,119,116,118,115,121,119,121,120,122,122,121,121,121,120,122,121,120,119,121,119,121
126,120,120,123,126,120,128,120,107,121,121,122,121,117,112,120,125,121,119,119,118,121,129,120,113,121,121,122,119,120,119,120,127,122,121,123,129,123,124,120,113,123,122,122,120,115,104,121,130,122,119,120,119,122,127,120,125,119,118,119,118,119,126,120,114,123,122,124,125,124,126,119,115,119,119,120,120,121,132,118,122,122,120,120,120,119,121,124,124,122,121,122,121,123,135,121,118,120,120,121,121,119,116,123,120,122,122,122,121,121,126,120,119,119,119,120,119,117,120,120,120,122,121,122,120,119,118,121
120,121,122,129,127,122,121,120,121,122,121,119,116,117,117,120,120,122,122,124,125,126,120,56,117,121,121,123,121,121,116,133,121,121,120,120,120,120,127,122,120,122,120,122,123,123,115,122,122,121,121,121,119,116,112,116,121,120,120,121,121,120,120,120,120,121,121,122,122,122,128,121,119,121,120,119,117,120,120,121,124,122,122,123,123,122,126,120,119,121,120,121,122,120,118,120,119,121,121,121,119,119,119,119,120,122,122,122,120,121,124,120,120,121,121,122,123,122,120,120,120,121,120,119,118,118,116,120
121,121,121,123,122,119,121,119,119,121,122,122,119,119,119,119,115,121,120,121,124,123,120,120,127,121,120,120,119,121,125,120,115,122,121,122,121,120,119,119,124,118,119,120,119,118,114,121,120,123,121,121,121,119,117,119,125,125,124,125,125,125,127,121,120,122,122,124,122,121,113,120,121,121,121,123,124,121,123,119,123,122,121,121,122,123,127,120,122,121,120,122,122,119,116,119,117,121,121,121,121,119,117,120,128,122,119,120,118,120,126,120,119,121,121,120,122,124,128,120,120,120,120,122,122,122,124,120
120,121,121,122,122,117,111,121,120,121,120,119,117,117,124,120,119,120,120,123,123,124,124,121,121,121,121,122,121,122,123,120,124,122,120,121,120,122,131,120,122,120,121,122,120,119,116,120,116,122,122,124,123,121,119,120,126,121,120,121,120,121,121,120,121,120,120,121,121,120,121,120,120,120,120,121,121,121,124,120,128,123,121,120,119,122,127,120,117,120,121,122,122,121,121,120,124,119,119,121,122,122,124,120,121,123,123,123,121,120,120,121,118,119,119,117,116,118,116,120,126,124,123,123,124,125,128,120
120,121,124,130,126,125,122,120,119,122,121,121,117,117,118,120,119,121,122,125,120,122,122,121,125,121,121,123,126,125,125,120,114,120,119,119,118,120,122,120,125,123,122,125,125,122,115,120,122,122,121,120,120,121,122,121,113,118,119,121,120,119,110,121,128,121,121,122,121,123,128,120,122,121,120,121,119,118,113,120,121,121,121,122,121,119,121,120,125,123,122,122,120,121,123,120,117,120,121,122,122,120,119,120,122,121,121,121,119,119,120,120,117,121,121,122,122,121,116,120,129,123,122,122,122,122,124,121
117,121,121,123,122,118,115,119,118,118,119,120,121,122,127,119,122,123,123,129,125,122,121,120,117,122,123,124,124,126,113,120,119,118,118,120,118,117,115,121,108,119,119,121,128,117,107,120,121,120,120,121,120,121,126,10,119,121,122,122,119,120,123,173,129,125,123,122,121,124,133,129,110,121,122,124,124,121,114,122,121,122,121,121,117,119,121,120,122,121,121,121,120,123,123,120,119,122,122,124,123,123,123,133,118,120,120,122,122,121,121,123,117,120,120,121,121,120,118,121,123,122,121,121,119,122,130,99
121,123,122,123,121,120,111,121,120,123,122,122,121,123,120,121,118,120,120,124,126,119,125,105,134,123,121,121,119,123,132,139,110,122,121,117,116,123,121,123,124,122,120,114,116,124,125,121,122,121,120,122,122,119,126,120,128,123,123,124,124,128,151,120,121,122,122,122,120,120,121,120,115,119,119,121,120,120,117,166,125,123,121,122,122,122,124,131,120,122,121,121,120,121,121,122,117,121,122,123,122,121,118,120,123,121,121,120,119,121,119,120,121,122,121,121,117,117,113,121,115,120,120,122,123,125,122,120
124,122,122,123,123,121,115,120,118,121,121,123,122,119,121,121,119,120,120,117,115,122,120,120,119,121,121,123,122,120,123,121,120,119,119,120,117,119,118,120,121,122,121,122,122,121,122,120,121,121,121,121,122,121,118,120,125,120,120,122,123,122,136,121,106,120,122,122,120,119,113,120,125,122,121,122,123,123,130,119,123,123,123,123,122,121,123,120,118,122,121,121,120,119,112,121,119,120,121,122,122,122,119,120,116,121,121,121,119,118,117,120,125,121,120,123,125,124,124,120,122,123,122,120,118,118,120,120
118,121,121,123,122,122,119,120,118,119,118,119,120,117,120,120,123,122,121,122,122,123,126,120,127,120,120,121,121,124,134,120,110,121,122,119,116,121,121,120,122,120,119,121,122,118,125,120,123,124,124,126,125,125,122,120,125,122,121,123,119,121,125,120,115,122,122,121,121,120,117,120,115,121,121,121,122,122,118,121,122,121,120,121,122,122,120,120,124,121,120,120,119,119,120,120,120,120,120,122,122,122,125,121,123,122,121,121,121,121,123,121,116,120,120,122,121,120,119,120,124,123,122,123,120,124,127,120
123,123,122,122,122,120,127,119,119,121,121,123,125,123,118,120,123,121,120,118,116,119,122,121,124,122,121,123,124,122,127,119,117,121,122,123,122,122,114,119,124,120,119,119,119,121,125,121,119,122,122,121,120,118,117,120,131,124,121,123,125,123,131,120,115,122,122,124,121,119,116,120,118,120,120,121,120,120,114,120,120,123,122,123,122,125,133,119,118,118,118,121,120,120,118,120,123,121,120,122,121,121,125,105,122,122,121,122,122,124,129,123,119,121,122,121,120,120,119,120,127,124,122,122,122,123,125,118
120,123,123,128,121,121,117,120,120,121,122,123,123,121,119,120,120,122,121,122,122,121,123,120,123,123,121,121,117,120,122,120,119,122,122,122,120,119,114,120,122,121,121,121,121,120,126,120,119,121,121,121,120,121,121,126,124,122,121,122,121,123,125,120,113,122,122,123,124,120,117,122,128,122,120,122,122,125,132,119,121,121,121,121,120,118,111,120,125,121,120,121,121,123,124,120,118,122,121,121,121,121,125,120,128,122,121,123,123,123,127,119,120,120,119,119,118,120,122,121,122,121,120,121,121,121,124,120
119,121,121,124,124,123,123,121,121,121,120,122,120,118,114,121,121,121,121,122,123,123,124,119,119,121,120,116,115,119,125,122,120,122,121,123,119,121,126,120,122,121,121,123,124,122,109,125,119,121,121,122,121,120,121,95,118,121,121,121,120,119,119,122,127,123,122,123,123,124,125,120,121,120,119,118,115,118,124,120,117,121,120,120,118,116,113,120,127,122,120,121,121,121,126,120,118,119,119,120,120,121,123,109,122,122,121,122,121,120,117,127,127,121,120,121,121,121,123,122,101,122,124,124,122,120,106,121
124,120,120,121,121,121,124,120,124,122,121,121,120,122,126,120,122,122,122,122,122,122,124,120,117,120,121,122,120,121,121,120,129,122,120,120,121,124,129,119,121,122,123,128,127,122,125,120,119,119,119,121,121,121,120,121,116,122,122,123,125,121,116,121,121,122,121,121,121,127,134,119,120,120,119,119,118,115,109,121,125,122,121,123,122,121,120,120,122,121,121,122,121,122,123,120,123,121,122,123,121,121,129,120,114,121,121,123,122,118,112,120,122,122,121,121,120,121,125,120,123,122,121,122,121,120,118,120
123,121,120,121,120,120,119,120,122,122,120,121,122,123,124,121,119,121,121,120,116,118,118,120,121,122,121,122,121,120,120,120,123,122,122,123,123,123,125,121,121,122,121,120,119,119,119,120,119,119,119,121,121,121,122,120,122,121,121,121,120,119,118,120,119,122,121,121,121,122,123,121,120,119,118,119,119,120,120,121,119,121,121,121,119,121,132,120,124,121,121,122,122,120,120,119,118,122,122,122,121,122,126,120,124,121,122,122,121,122,124,121,113,123,122,123,122,120,106,121,120,120,120,121,119,118,117,121
128,122,121,120,121,125,126,119,119,120,121,121,119,121,127,120,124,123,122,122,120,119,118,120,123,122,121,120,120,122,121,120,120,120,121,122,122,124,122,119,121,122,121,122,120,117,110,120,122,122,121,122,120,121,121,120,114,121,121,122,122,122,113,112,126,123,121,122,121,120,117,121,119,120,121,122,122,121,119,120,122,120,120,120,121,124,124,120,123,123,122,123,121,122,117,116,124,122,121,120,120,122,126,121,120,122,121,122,122,122,126,119,116,120,120,122,120,120,120,120,123,123,121,123,123,121,121,144
125,123,121,122,125,125,131,126,114,120,119,119,119,115,113,121,125,122,121,121,121,123,121,120,120,121,121,122,122,122,119,120,121,120,119,120,119,119,120,121,121,121,119,120,119,118,129,122,120,121,121,122,122,121,125,120,123,122,121,122,121,121,119,120,118,120,120,118,118,119,115,121,121,120,119,120,120,120,120,124,124,122,121,121,121,123,123,120,119,122,122,123,120,122,124,160,122,122,121,123,122,121,121,128,122,121,121,122,120,120,126,122,120,121,122,121,119,119,121,120,122,120,120,122,122,121,119,119
119,121,121,122,120,120,116,120,120,122,121,123,122,121,120,121,119,121,121,121,120,119,114,120,121,121,120,122,121,122,127,120,120,121,120,121,120,119,118,119,123,124,122,122,120,122,123,120,117,120,121,122,123,124,122,120,120,121,120,122,122,121,121,121,122,122,121,122,119,121,126,120,116,120,120,122,124,125,115,121,123,122,121,122,123,123,120,120,115,121,121,121,120,121,119,119,122,120,120,121,121,120,125,121,116,121,122,123,122,123,124,121,120,121,121,122,120,121,121,120,119,120,120,121,120,120,119,119
122,122,122,122,121,122,124,120,124,122,121,121,121,120,120,121,122,122,122,123,123,122,124,119,120,122,121,121,120,120,121,119,122,121,121,122,122,122,126,120,116,120,121,122,124,121,118,119,126,122,120,121,121,124,130,119,120,122,122,122,121,120,118,120,121,120,120,122,122,122,127,120,120,121,121,122,122,122,120,120,120,121,120,122,120,119,116,120,125,121,120,121,121,122,129,120,113,121,122,123,120,121,120,120,125,120,120,121,121,119,123,121,120,121,121,122,123,122,124,120,121,120,121,121,121,121,116,121
119,121,121,123,124,122,126,119,121,121,120,119,118,120,123,120,121,121,121,122,120,122,121,120,121,121,121,122,123,121,120,119,122,123,122,123,122,122,119,121,122,121,121,121,119,121,124,120,116,120,121,121,119,121,120,120,123,119,120,122,122,125,128,120,120,122,121,121,121,122,122,121,118,121,121,122,122,120,119,120,124,121,121,122,124,120,111,120,119,120,121,122,120,118,122,120,122,121,120,121,121,121,120,121,121,121,120,121,121,121,121,121,126,123,122,122,121,121,123,120,117,122,122,122,120,120,117,120
122,120,121,123,123,123,123,121,117,122,121,123,123,121,121,120,123,120,119,120,121,120,115,120,117,121,122,123,122,120,115,120,117,122,122,122,121,121,119,120,122,120,120,121,121,121,122,120,120,122,122,123,123,120,116,120,118,121,121,122,121,123,120,127,123,121,120,120,118,116,117,122,124,122,120,122,121,122,118,121,120,122,122,123,123,122,119,120,122,122,121,121,120,119,121,120,117,120,120,121,120,123,130,119,119,122,122,122,121,121,123,120,122,122,121,123,122,122,121,120,122,122,120,122,121,119,118,120
120,121,121,123,122,121,119,119,121,121,120,122,121,119,119,120,120,121,121,122,122,123,121,120,122,122,121,122,122,125,126,120,121,121,122,123,122,121,124,119,118,120,120,121,122,119,119,119,122,121,120,121,120,121,118,120,121,121,121,122,119,118,121,120,120,122,122,126,122,122,126,120,121,120,120,121,122,122,119,121,119,120,120,121,121,121,118,120,123,122,121,121,118,120,120,120,119,122,121,123,122,120,124,120,120,121,120,122,122,121,116,121,123,121,120,122,121,123,122,120,120,121,120,122,121,121,122,121
123,122,121,122,121,123,127,120,124,122,122,123,123,128,137,119,120,120,121,122,120,120,119,119,119,119,120,122,123,122,119,120,123,123,121,122,121,120,122,120,125,123,121,122,123,123,126,120,120,122,121,122,121,121,121,120,122,121,121,121,120,120,122,120,122,120,122,122,121,119,120,120,121,122,121,121,121,122,121,120,118,122,122,122,120,119,111,121,124,121,121,122,121,122,129,120,116,121,121,121,119,122,122,120,121,120,119,120,121,119,114,121,121,121,121,122,122,122,122,120,123,120,120,121,120,121,124,121
113,121,121,121,120,119,114,120,120,121,120,122,121,118,118,120,126,123,122,123,122,125,131,120,119,121,121,122,119,117,119,120,120,121,120,121,121,122,123,121,120,121,121,122,120,119,119,120,120,122,121,123,123,124,122,119,123,123,122,122,116,120,122,120,119,121,120,122,121,119,111,120,120,120,121,122,123,121,123,120,116,120,121,122,122,122,120,119,120,122,122,122,120,120,127,120,125,122,121,121,120,121,122,121,117,122,122,121,121,122,126,119,118,119,119,121,121,119,114,119,123,123,122,121,121,123,124,121
122,122,120,121,120,121,123,121,117,121,121,123,121,120,121,120,122,122,121,122,121,122,123,120,118,119,120,120,120,120,120,121,120,121,121,122,122,124,127,120,120,120,120,121,120,120,120,120,121,122,122,123,122,122,121,120,120,122,121,120,120,121,119,120,121,122,122,122,121,121,116,121,120,121,121,121,120,119,118,120,120,121,121,122,123,122,120,121,120,121,122,122,120,120,121,120,121,122,122,122,120,122,123,120,122,121,120,122,121,120,122,120,120,121,121,122,121,121,124,120,118,123,122,122,121,121,122,120
122,122,121,121,121,123,128,120,120,119,120,122,122,121,115,121,119,122,121,122,121,119,115,120,124,122,122,121,120,120,116,120,120,121,121,121,120,119,120,119,121,120,120,122,122,120,119,120,120,122,121,120,119,119,120,121,120,122,122,123,123,121,118,128,122,122,120,122,122,121,121,122,121,121,120,121,120,121,120,124,121,121,121,121,118,121,120,121,121,121,121,122,123,122,123,120,118,122,121,122,121,120,120,129,122,122,122,123,122,122,116,120,119,119,119,121,120,121,120,142,125,123,122,122,121,124,131,119
121,121,121,121,120,120,121,121,118,121,121,123,122,118,119,120,121,121,121,123,121,124,124,122,121,121,122,123,122,122,125,120,120,121,120,121,121,119,114,107,122,122,121,122,121,122,122,121,117,121,122,122,121,120,115,121,124,122,122,124,123,123,108,99,118,120,120,123,123,121,126,124,121,122,121,122,122,119,110,121,119,122,122,123,120,119,120,120,120,120,119,120,118,118,112,121,120,122,121,120,119,120,129,120,122,123,122,123,122,124,124,120,121,122,121,121,121,121,118,120,122,123,123,125,123,126,135,119
120,123,121,124,122,120,121,121,120,122,120,121,121,123,120,120,119,121,121,122,121,120,117,119,121,120,121,119,118,118,117,121,119,121,121,123,123,123,120,120,123,122,122,123,122,122,128,121,117,120,120,121,121,119,114,120,121,122,122,121,119,121,124,119,123,120,120,120,119,120,120,121,121,122,121,123,123,121,123,120,120,120,121,122,122,120,116,120,119,121,121,122,121,124,128,120,119,121,122,123,121,119,117,89,121,123,122,122,122,123,136,122,117,120,120,121,121,121,122,121,123,122,121,122,122,121,122,120
121,120,120,121,119,122,135,119,122,121,120,122,121,120,122,121,121,122,121,122,122,120,119,120,118,121,121,124,122,121,121,119,122,122,122,123,122,123,121,120,119,120,121,122,121,121,123,120,119,120,121,121,120,119,122,120,118,122,121,122,121,121,111,120,122,121,121,122,121,121,122,120,121,122,121,124,125,122,122,120,119,121,121,122,120,119,120,120,121,121,120,121,121,120,128,121,121,122,121,122,121,122,119,120,121,121,120,120,119,122,125,119,119,121,120,121,119,119,119,120,119,121,121,124,124,121,116,120
119,120,120,118,116,118,120,120,119,120,121,122,122,122,120,120,120,121,121,122,122,120,120,120,122,121,121,122,122,122,123,120,119,121,121,121,119,119,119,120,118,121,121,121,119,119,122,121,123,119,118,120,121,121,125,121,118,122,121,122,120,120,118,119,119,122,121,121,120,120,116,121,122,121,121,122,121,123,125,120,122,122,121,121,120,118,113,120,117,121,121,122,122,119,118,120,121,121,120,121,120,120,123,120,122,121,121,121,119,121,124,121,116,121,121,121,120,122,126,120,124,121,121,122,123,123,126,120
118,121,121,122,123,121,116,120,120,121,121,122,121,120,120,120,119,120,121,122,122,122,122,120,122,120,121,122,121,123,122,121,121,121,122,122,120,118,112,121,122,123,122,121,121,122,118,121,120,121,120,121,120,116,118,119,120,120,121,118,114,119,123,120,120,122,122,123,123,125,124,120,120,122,122,122,120,122,124,120,119,119,119,121,122,120,115,120,119,121,121,120,119,116,118,120,122,122,121,121,120,121,123,120,121,121,121,122,121,122,115,120,119,121,121,121,120,124,136,120,117,120,121,122,121,118,115,121
121,121,121,120,119,124,122,120,124,122,120,120,121,121,130,120,124,123,121,121,119,120,120,120,123,123,123,123,126,125,116,120,121,121,121,123,118,122,134,119,122,120,120,123,126,125,122,121,118,121,121,124,124,124,113,120,120,122,121,122,121,119,119,121,119,121,121,120,121,119,120,121,120,121,120,122,121,118,111,120,124,124,123,121,126,128,118,120,119,121,122,124,123,120,119,66,120,120,119,120,122,122,123,142,122,121,120,119,118,121,126,123,119,121,121,121,121,120,117,121,121,120,121,122,123,121,125,119
119,122,122,122,119,120,117,120,120,121,121,122,122,121,122,121,122,122,121,122,121,122,128,119,119,119,118,121,121,121,120,121,124,122,122,122,122,122,124,120,114,121,122,123,121,120,122,120,123,122,121,121,121,121,119,120,118,120,120,121,120,122,119,120,119,121,120,122,121,123,117,120,119,121,121,124,126,120,118,120,117,119,119,118,114,116,116,117,118,122,122,123,122,120,120,121,122,121,120,120,119,121,122,125,121,120,120,119,119,122,127,120,120,122,120,118,115,123,125,120,121,123,122,124,124,121,125,119
117,121,121,122,120,121,116,120,123,122,122,122,122,120,117,120,118,119,120,121,122,117,106,121,120,122,122,124,119,124,126,120,121,122,121,121,123,120,121,120,118,120,120,121,120,119,112,121,120,121,120,122,121,120,118,120,123,122,121,121,121,122,124,120,118,119,120,123,122,119,124,120,118,121,120,119,117,119,125,119,122,122,122,122,123,123,134,120,120,122,122,122,118,116,113,120,120,122,122,123,121,120,124,120,121,121,119,121,121,121,119,120,122,122,121,121,122,122,122,120,120,124,122,123,123,125,108,121
