0.0
0.0
0.0
0.0
-1.1776144325346507
-0.2216733103304298
-0.1228819780887777
0.3787085459127762
0.29665467933174516
0.22831533001329016
0.1708677799479575
-0.2537757485244654
-0.2029501180788634
-0.15544300996999366
-0.11337005770259516
0.2910925357442559
0.6025766042037366
0.4619273365880466
0.7052514458828893
0.5134448519259077
0.720368458693194
0.8732033662893192
0.9797539194959347
2.154808301140094
1.5683443594021926
1.4422154147181407
0.5900699643421209
0.29445988731119765
0.08444202507902993
0.6825194132933241
0.05871422544833926
-0.05053628642816862
0.2531942436350141
-0.23309180284572661
0.13634720455844357
0.8068872566563121
0.5876346171363798
1.8772722063963008
1.3853545558136822
0.9647265381217255
0.622525730477121
0.35702673698083365
0.1610459350655128
0.39321091279105713
0.2193061365109417
0.09209264250688248
0.3731500644255504
0.2317056992389076
0.49268598638053884
0.3290688939132317
2.7804329507520578
1.7137891437184853
-0.28128138410012515
18.072791108977846
15.974556457152506
11.645263519909692
11.305020777629776
5.376780529843844
1.0989425000683832
1.6005545707867308
-14.772236342180594
-19.08143896004033
-20.68936803748218
-9.533919548568837
-7.836253720132593
-3.1415068992956403
-1.7428811090695002
-0.432197376142328
2.6417133198727134
2.2683447829579353
-2.6512905185918063
-1.0490887288930366
0.9420419207770441
1.3359819648698632
-2.8662492813383995
-4.322013255841709
-4.2683230068435085
-2.658907536815956
-3.1955735062630457
-2.1235488458729765
0.9340798630385581
-0.0512598461066216
-0.5389249186515115
-0.9628846545817042
-2.050313087873451
-3.260420721992949
-4.5312832626024155
-3.2381757355747496
-4.7453331754094705
-5.138594875810691
0.15444004353129692
6.490404744773456
4.609620225737164
7.690007883140574
1.7865967519766395
0.7305929796046693
0.295104906080787
-1.8467037645775513
-3.08071660415679
-2.4580625684709734
0.7111374646753399
0.6307760366688966
-1.3135071478213676
-0.2530669785322144
-0.5106374210311042
-2.924245332967984
6.288759447698907
0.16014512375058576
-1.436399180947181
-1.1732658855895668
-4.600786979497917
-3.5067609860016966
-2.9061430859447634
0.5739786197299801
0.3321180085185901
1.9170157600782687
0.13359716928086574
0.5226959983017556
0.8062637339329966
-0.4740678578374773
-0.7456847445397815
-2.7807983361081243
-1.7405719089558582
-0.49742358157515953
-0.9889187319919933
-0.27348321022787636
-0.08932031494752607
0.7714137917023831
1.0437383732242218
1.2121853719563853
0.932982740805754
1.0512742013370908
0.7531929288811698
0.8738512891682725
0.22267516641964957
0.4518033655535364
0.6400122411670925
-0.31862486331500284
-0.32004711945677544
-0.664201873452777
-0.9081524132772049
-0.33208692948469254
0.13743241199631723
0.5023819352420672
0.034945364416687386
0.02630069193882472
0.7561260411719027
1.6843933989056912
1.2688942974501298
0.9057637012148116
0.973232982292498
1.0179540446655573
0.676074232567965
0.4065231709137095
0.20405148872905646
-0.30867091167906824
1.156142123822604
1.200799256005182
0.8443510715099678
0.9209186067282782
0.9755401735956131
1.0119669793631567
1.034012881935139
0.3078556827804061
0.11419297207883405
0.7202303936724952
0.09845567791465659
-0.38135729840457566
-0.7334242210792862
-0.23949716477327143
0.9081828957173188
0.3241897544565221
0.9563519125668387
1.807054161544781
1.3328411015832289
1.2962489576557197
0.8809230110045951
0.9174143750111544
1.315700023920274
0.5154555758561505
0.25852566721954606
0.07578107097613108
1.7978221416342817
0.1899098198655651
-7.346309274378954
-15.690233929424348
-16.694880242221807
-7.818392372547931
-3.9580451070301708
4.562192612965707
6.58460441836132
3.0220090747925976
6.612945726240542
6.279037463900259
8.019817583563539
5.509813694394152
1.9332297795249316
1.3365195265378913
3.8825602287836483
-0.0024625195507486097
-2.6424354657931746
-2.7324312769655856
-2.6515961023717054
-2.100649474550657
2.4696274964969325
0.8710808681609805
0.6603776232177903
3.0556913266854733
2.669164018104484
4.135951624346017
3.735318030273117
5.556630150149498
3.213725143532494
0.951672953520724
-5.21460824650864
-6.566790286179697
-5.531975438663482
-8.205456273204929
-0.8981453373143164
1.2119332564363134
0.9221499067778411
-5.312499821743575
-8.702407799608972
-9.340538014100025
-4.475277538690966
-2.4148875167073878
-2.3175494515542727
0.2704811447495725
-1.4861926814021256
-0.004360342669416095
0.35302510950495203
3.8687743457579917
0.5970372516187448
-0.9660208801902578
-3.2999253529318207
3.41244303085005
5.332024141220757
7.0450977473793275
4.884280003356707
3.4212754709219926
2.9631949220667195
1.8600989176229286
1.0159046565218126
0.4022342838188081
-0.017143863111885406
-0.2805408674765333
-1.1619091400344186
-0.6788608693945456
-0.6091978478855741
-1.6228735249774178
-0.8974956548799
-0.28878866376610723
-0.5394751433940538
0.3717307925659351
-0.02969673212842039
-0.3602191234380472
0.11765618574162617
0.48945227101169453
0.3960516472047949
-0.06306811958084557
0.3100116952658607
-0.13700728505089121
0.9869593548640986
1.1191089802306051
0.8243867277780361
0.5728226733937243
0.7371793554063266
0.49313617409825816
-0.06880018030238255
0.23982555537528982
0.495065066196741
0.3276347127531763
0.1959013362025586
0.46585714808267037
0.6787244085822006
0.8386374619616824
0.5837275775197279
0.37641925042849333
0.5843204633968664
0.01122669454887415
0.6751363347803334
1.9369115479950854
1.4226655987160859
1.3536631147847555
0.5446279309617519
0.2798304134750934
0.09042611390221597
0.3323540417363177
0.16944814892937055
0.05313987974742477
-0.02450936786298983
0.2971032842677962
0.5559905971141188
0.7547085864812684
1.2683379577735008
0.9133610368683375
1.7227467743675142
1.9665212765361486
0.27964807858869123
-0.3085107881267348
0.002606582799091428
0.27826739042327336
0.14095499566996195
-0.32561810539822283
0.8009898702859831
1.6869558370593727
0.13848882190328626
0.017609809252122764
1.4146431945529057
-0.07877431878070396
-1.9910685725111816
-1.5939701163152584
-1.216627118535119
-0.5130516067966706
-0.6860274198820597
-0.8201761929444764
0.1869047677436816
0.22937614795304387
0.2379637729141964
0.22447778669275892
-0.5392446180964137
2.1807188680957657
3.1747274425191354
2.393085768617711
2.078167718018037
0.6876306803415217
1.8083369416686166
-0.6281832874053728
-0.3016379825352098
-1.835494924013197
-1.5010759837944367
-1.1706843505948146
-0.13171398448676075
-0.41248074086511816
-1.005100423562546
0.38515209243019477
1.8392872567264162
0.34817867832488214
-0.859208993603783
-0.6854876086581161
-1.2587219031557946
-0.20476585596057473
-0.4702675915208747
-0.6799724996730304
-0.8377899492635174
0.8931207344680284
-0.3480777638833392
0.8697451883733254
0.3330882941606992
0.625741149547191
1.5776063187567337
1.9228622112413232
2.515642281307366
1.8222983655721219
1.6084759574672653
0.687767751164451
1.0784688905026036
1.7670306523232333
2.2996950241157035
1.2168710987927462
1.4631863219549788
0.9239685882101133
0.8788251711243198
-3.195595687309954
-2.990302502329297
-3.0712444012415707
-3.0372281377006045
0.7535229072592271
1.1416426614467032
2.112786308064477
1.6903175290022554
0.9206163017544811
1.3881491771303582
0.25717869804758764
-0.26747688640219114
2.2925883511404215
2.439389773189754
2.497155698482487
1.7567499101136572
1.1497385767996111
2.1499163857927472
1.4535960552954446
0.8985036420086584
0.4766753569865877
-0.1961912726589064
1.1585834170638047
1.1335778592285728
0.0011191787948454657
0.23324192373319053
0.44070715166639285
-0.12125102860051329
-0.5458441541184081
-0.48129439443273164
-0.0336155897621806
-0.03754992354107271
-0.037050183752746435
-0.40247714828083253
-0.6806525303432233
-1.2503285857217208
0.5425795110729101
-0.2629405402152658
-0.1721223131968321
0.26757478936613366
0.23467034005564757
0.19525151897918172
0.8922246956693123
1.7889382735086374
0.9765259099765387
0.6752797697604731
-1.4119870174804825
-1.540048480612158
-3.0527309051219635
-1.9503110847241714
-1.3886069139318131
-0.1862906790267016
0.009087745070772205
0.5003970428030102
0.1128908402839286
1.6232592830306198
0.9221886790956733
0.6955514967287133
1.9719522716199225
1.0954691816212623
0.7443236456472764
-0.642558635281911
2.350121643482286
3.9509816691438497
10.286039864683488
5.471430608829686
0.7830637811267893
-7.667548783136972
-8.531575305581839
-12.562763029562303
-5.426283844949234
-3.3026350474728248
-2.7261383571912132
-5.991355473859385
0.6870070439068723
6.987539697540258
4.3075138803429
5.64236411260913
5.776116838671404
9.037611556325654
2.194313243799222
-0.6729635285286515
0.8599424449727067
1.7879500326242364
6.236435823023779
15.191976178763664
10.882262948306568
8.323432561018663
-0.06208898607695268
-6.911565490957536
-3.1093868482585867
-2.4071242258440044
-6.117297754261662
-5.529360913074065
10.975748356365493
9.03378307905019
5.3260360676310174
6.299831170179119
6.601547172506589
6.375542250519246
2.4367052999106056
1.202609675254549
-3.3589083566852533
1.7134577965882887
5.812487155284854
14.501640570304914
12.211266882171127
6.794717688337639
3.1753962232366173
5.5614093356317165
-0.6112416319448801
-0.1719541957475168
4.412951583518796
1.0641673295896856
8.42273376705327
4.929925547203048
3.9382250366925904
1.3147173037535484
2.265124259154808
0.8703117103783486
-2.370976397796503
2.2199932268342755
1.4711727381669575
1.987598561830747
0.1819481439552526
-0.8421199261310381
3.5809802499370464
2.9867301982608723
2.8224021324856916
0.8098839585060467
0.7113835054525245
0.3034446264571301
-0.3468893393296919
0.6653979941345101
-0.35346618529847507
-1.1275148712243928
-0.5794470793686213
-1.2140078679952988
0.1663654464583464
-0.21178396051005766
-0.14445648145890444
-0.8278464722283703
0.8597040350963697
0.3311593727476687
-0.10828572333408165
0.2808077570041165
-0.15378117043974637
0.24199292796995958
0.5520781859560935
0.0460564240807354
1.4869147146150323
2.596226134623592
4.145459428261794
2.3213743268931397
2.301193659971994
1.5271493324011536
0.9171444998858552
0.827854426429825
1.891221115171843
0.8866612000362311
0.10256361031312111
0.25732015882382225
0.04534361512120117
-0.09208287174791813
-0.1715256293860653
-0.20805031938598123
0.5227944112396333
1.1015584531354423
0.4322671616646728
-0.841439333670139
-0.710997824063729
-1.309528376681595
-1.0048779405188633
-1.838763979206437
-0.24535623714206345
1.3871308052533102
1.887975861851156
1.8443808306167666
1.7497681977570216
0.8930923464801066
0.2018450055752148
0.03864447214240416
0.3012295202342245
0.5225240461921494
0.7001682870004482
1.573513313939769
1.500837285929519
1.4151617600759145
0.22202797709979571
2.241724777603331
6.027519498911447
10.36683371430424
7.654906303048522
4.597234255599688
-1.1754775435442433
1.0358736352393922
5.117928852334326
1.3162187448302651
2.021697910051558
1.1495179164051013
-0.2298090858509314
-3.084679544256162
-1.1425420059753884
0.49215802331850167
0.32813787943415557
-3.119659163543332
-6.132210963542569
-6.1292746413244705
-1.1653170926233996
-6.440972016547128
-5.000785953281381
0.28185588914681414
4.757703996251794
9.185410345577761
11.625853930971157
8.772031832466723
4.061273077444669
-0.44948708278390814
4.213978625317237
3.8800900886383936
0.2811972981724069
7.464622616331258
3.4892308285786733
0.30499750860657526
1.191414038014599
2.342864141772636
-2.6180668409375296
-3.4664688937688526
-2.4902681834811604
-4.177463172853377
-5.756108915265581
4.209025366653277
2.4073493935351236
4.158460937689118
4.304222749676327
3.923930543766774
2.7936078956169013
2.59542546730915
-0.5264898081466778
0.38587973946268783
4.856439617337432
3.901578543811522
2.699529711847916
2.46354056607053
1.1716677836227425
-1.2912047838519936
-0.9286155312812598
-0.5464693310478221
-0.551026373151044
-0.1414350680269041
-0.1608477386503474
0.20836326266922472
0.1356646379855942
0.447676020208569
0.31985183619441704
0.5824270566776992
0.41268646833325673
0.2727368001187281
0.1627142844432417
0.08032705724012926
0.39061875328791207
0.6349286961538442
0.4494854566020601
-0.07198767232254483
0.6311226041847703
0.44639768341589153
0.2943096675902759
0.17490996900970052
0.08563378647249045
-0.34621783455759136
-0.6707981109950601
-0.901866909029406
-0.31816842134634027
0.15506384157314385
0.5209564733468339
0.4213257440604298
0.6936372441318355
0.5212070690891785
0.37093689620597925
0.24659639101998437
0.14850514678385257
0.4434655742544399
-0.06347485804334108
-0.8266114339204773
-0.6642493246950972
-0.5089698013043262
-0.0018130963588329774
-0.33941138012186783
-0.6050290409709511
-0.8040996293861982
-0.5766546459087781
-0.755933557743345
0.21755171276396224
0.6050649011823563
0.512400669398428
0.04450125608492106
0.03480511901509619
0.3946046540308485
1.4072254513096762
0.6983159932155323
0.4845178954688959
-0.057639555480614724
0.6312723916824483
0.8062582583239644
0.9321230341585779
0.6482900855382494
0.7862786899050782
0.5216877796329019
0.3131970759879694
0.15668888343999626
0.045433360809787895
0.34027259358782597
0.5788274513392015
-1.8179092466249518
1.129630692499258
3.0881984557547453
0.13179159957753317
1.0963449662858826
-1.8303267652579465
-4.088732448525033
-3.165006397881587
1.7251800818847949
3.33723728030738
0.06283085858786297
4.439513668274157
1.9043132634101294
0.57205036502626
-4.160251268271633
-4.083864499981446
-2.764007639866299
-3.106438885940202
-0.733359276561171
-1.8086016364780124
-0.8181035469060491
4.375904819569157
1.3351436881829475
1.7821441117893935
6.505886868335387
4.921889044786054
4.268192142228986
4.043970834645306
3.0820953051953635
4.890220708917912
1.485881611435214
-0.4412891203286895
1.0882488649253208
0.15255860720239056
1.6823854160180984
1.4370428046346804
-0.2273158513830329
-2.604411476158002
-2.9001567244191184
-1.540597419833889
-1.8757150837363563
-0.9910956827809971
1.2003248392032155
-1.1698463667145478
-1.5752038670655393
2.1906852779789396
5.109178549052978
5.048691834173025
6.3224715704533025
4.968341642464155
2.323410110703262
1.336714542707281
-0.4984677557512429
0.7250006428163827
4.707099228566757
4.113649047545492
5.414486737114873
1.937465297187213
2.8780188208465782
2.5343468399148623
0.4314938992139834
-0.8000299194686359
-0.5667928509065937
-0.6637434591589026
-0.672211803472847
-0.2554609381263172
-0.26129372594214395
0.4931576916541307
0.35180717413148277
0.6033040153717603
0.793596999098797
0.19275879376425642
0.824729312095644
0.5797098167626062
0.7476509489242678
0.8737249458427455
0.9633504050049586
1.022844189061836
0.32121576225340676
-0.9640819930466178
-0.46252731254258606
-0.7670560668785904
-0.24044528630324336
-0.1781150757278606
0.24407330790850218
0.5706689692168259
0.8109658935722026
0.9776883892880267
1.084715361455575
0.7768655872328627
0.8894760413757206
0.9693502741134543
-0.08384761230065751
-0.5323079611269654
-0.8525877171977404
-0.32912482113015473
-0.2617358583956688
0.5389765840263534
0.05450444531345744
0.03355091354355335
0.7550294429498383
0.5720556029557653
0.7797751755418874
0.9284094087806734
0.6592461978572783
0.43693919929880365
0.2618766287109505
1.6052949092057325
1.1689400314137848
0.43189850023732757
0.590194796945863
-0.01468198233365392
-0.10615138952300508
-0.5241492838089614
-0.8258459244161778
-1.7675211838707057
-1.3538817354854626
-0.9851724654033396
-1.0428104098008728
-0.3384239448641895
-0.15607658820219156
0.3401291917513413
0.7058209057397147
0.9600611729955457
0.7550536004218309
0.934322823469589
1.0527163386039835
1.1232711980428254
1.1580189040609297
1.1674001754184762
1.1600218774884297
1.1426492781966944
1.1203474836806733
1.0967058153435594
1.0740967210135282
1.0539359161053903
1.0369226317180402
1.0232482149945266
0.6440818866324567
0.7222195847393813
0.7936200978833647
0.8550941880019246
0.9054171518234907
0.576015544128605
0.3222923323357853
0.8738781489246044
0.9428918447874446
0.6223123913196128
0.7391664875850312
1.2023489620988055
1.1894536846728774
1.1662596289166554
1.1384067027430396
0.7411393402666909
0.8001378828880867
0.48457827791326413
0.6155451720861677
0.7287733234252346
0.8218061918661791
0.1573249736716843
0.014559610867066385
0.29195933109539324
0.5233431279164933
0.707291783411645
0.4779920081648043
0.2952529404897658
0.1564278646279174
0.42504296413877973
0.27162042701304767
0.5218672949764127
0.7178417285974752
0.8639820322181245
0.9670497515942718
0.6660495975123029
0.4231029343794551
0.2361096244708573
0.4679843230549847
1.3940140169789532
1.000174414721758
1.4094415409876688
3.92685819350618
12.47612355125231
8.993405209300139
0.8390807926693729
2.1750578878471805
-1.4705314681811117
-2.367955887072328
-4.380021354870778
-4.304236529201644
-1.8611911021287377
-3.908709786226048
-2.8661516275396988
-1.2428669890467916
-1.8038337689528712
-3.3590803446818702
-9.71237181291326
-3.4801092566579364
-4.0048253036982056
-10.314138216096197
-9.616047477512302
-7.044587814045898
-6.78434726515663
-1.3961252853516184
-7.93979774105095
-4.260138617658123
-4.309753525655221
-3.658547227485405
7.496795648793879
13.060003018605014
15.489895660497002
11.743932123238704
15.819662667233825
15.406700400863958
10.002934413442933
7.112511827014612
3.038101056124164
4.779032583288456
7.398998676198092
7.285930433788926
5.717085072089732
4.142078515880237
1.134124448855141
1.4874879243668753
1.1728308346628817
1.0399064343028632
-3.0232752625935033
-3.4824957289955156
-6.972792433016552
-3.965953059475031
-4.01556134738679
1.9327925641877037
-4.124484669092682
-5.94260859488681
-2.4609639565228987
-1.5135726295592746
-1.1638964886868637
2.0193716008162688
2.2126317451783644
2.238289562928155
2.524785374282506
1.9265845762838725
0.6584823693377864
1.1214268268268563
1.1148109746613128
1.1015119615238533
0.7163641648694674
1.522355050988808
1.0425359342562728
0.6567845913214082
-0.007616794775153979
-0.1372262686613392
-0.5768334476379681
1.3241314403970903
1.3415585471781428
1.325421898107345
-0.18536702392894822
-0.625413580659812
-0.9329838639306354
-1.5011682737175536
-1.1621331051413843
-0.48707168680646806
0.05725949849343542
0.47580892356875665
0.4130083598378479
0.3405458194666866
-0.10094521861490602
0.28627338883229225
1.6934979992944093
1.2904167336986325
1.3021019057084564
1.2854753318891625
1.2522962333571337
0.8426172638578351
0.517030945964863
0.2704030150628222
0.09321848094657795
-0.026047242771774747
-0.0992717391856277
-0.5062979954925084
-0.4338001804207449
0.38380896464199166
0.29101911712607664
0.5780029055702811
0.05533701408759095
0.3788913793550446
-0.10486654900919512
-0.4813926162411287
-0.022932187998498166
0.3477775014353611
0.26494782559706603
0.9289773968373303
0.32722787449776003
-0.15812007523713134
0.20595390520860568
1.236262511332145
0.9207898018108598
0.2797796799945341
0.14210227256873653
0.04389386562514373
0.34709224240594233
0.590382485462936
-0.32953765176158745
-0.30565027725886257
-2.8470883519617054
-4.7815036972898195
-5.441625233705084
-5.823279566350101
-7.47355444907936
-1.6316402388061215
-4.393090564942829
-2.5263812453335244
2.6191503424189673
0.6345168879857006
0.40864377101804905
1.6288679843326501
1.7707833235093924
-0.7816703820821731
-2.0703205221788017
1.755735560214116
0.3225366176841642
2.103235799727448
1.6141472951157467
-3.6157952188179747
-5.451036261960246
0.2723170868991245
0.02445277988899397
-1.3194843761132238
-1.6435387971592024
-2.6138140887418975
-2.5991293576025387
-2.9109410000483193
-2.377495592932133
1.755587954628989
-1.6958863442171888
-0.7683366979347552
-2.6230622716389664
1.468002936172276
-1.9871479764915252
-2.8822086044809434
-0.21791044934426296
4.0908056305657015
7.359928951007348
5.288758624578812
2.3754666299412635
0.7670737172541937
0.6378735446697019
0.5850805530871988
2.796836875798239
1.9463083328439006
-0.9574041504802797
0.4956445082009966
0.5853546326605784
1.0436219053308784
-1.9092550185150807
-1.9658154018845044
-2.293469929826121
0.8411716006987868
-0.008711556541078025
-1.0721590610258795
1.7901577481792497
2.905068059561412
1.852492875402085
4.279518787833252
5.001286430609325
3.982100870902654
1.9956726094260406
1.5301949029284778
1.194205674800932
0.9666604073882155
0.8256569658942792
0.7504920297083799
0.3541778048090134
0.4445242026667306
0.5456965919937113
1.014351189261536
0.6511616596200842
0.37013691586675435
0.5319991087335703
0.3026837704838161
0.1338640379201266
0.38533591393558064
0.9616181360633707
0.6705653197437611
0.8022260382860344
0.5323731463414271
0.3197114730112981
0.16005248705326064
0.7839131469783327
0.9057031343381817
1.358769493298267
0.2210004742392222
0.43230000579517996
0.6108030434839985
0.7544182010263429
1.2332834717114722
0.8591447604686373
0.9233685873048206
0.23263016038898265
0.06730486909364097
0.694957598149097
0.8262095563170511
0.9228792806731667
0.621349560520443
2.2250516718059266
2.351916156347794
1.2979869915105393
0.8187262118209819
0.8197965014764057
1.2034765932493348
0.4029281976991097
0.5234335828697463
1.0060622784981952
1.3897259638588664
0.9430550087951897
0.21744854804561442
0.4000031365519981
0.1942389646541759
0.04890391572674966
-0.4154200551438918
-0.38631580257178566
-1.0746196469327516
-0.47662276432229933
-0.35045998764887476
0.12572047863863306
0.4958058359261127
0.7695066707895428
0.5919253774165019
0.8014705806805817
0.5808472569048304
0.39541336227294344
0.6156150224294286
0.41648646626767394
3.5758584404755296
6.738762400082809
4.2812029909604234
2.968010049361787
3.7465807967234928
2.494262479629703
0.7681019231322546
3.882648325161798
3.01678329416939
2.3099068026643454
2.128253294815769
3.4781277019509047
2.6872664791551584
1.6852364730130036
-1.2933774308065016
-0.22960651293534262
1.06726214208313
0.6442693767137129
-1.8860800744809214
-2.70433805618645
-1.4009759896373424
-1.7826653964006969
-2.0408995280624795
-2.2006765937595403
-0.8108560814688626
-0.07879234574035687
3.4185755565016036
0.908377310149127
-0.03973800381087833
-4.480912200762854
-5.669999650140482
-2.760044233738101
-1.4918873269204351
-0.49328894753178143
2.467907284208439
0.6419004599975029
-0.5110197680800231
-1.0679503793759335
0.7185131846310866
-0.10505424298202537
-0.038174467663935355
-0.7302917641555849
0.9439978414657212
1.8751289596192606
2.5523417137052116
-0.30273238642367906
-0.3457399149220989
1.8666974276386576
1.0110480340834274
2.1545079551224804
3.39171020625388
3.5631874445766005
3.6266951758082167
3.616994254016673
5.405277939006094
3.053547356702385
1.167336715014594
0.46225711463593494
-0.7569706378299796
1.6927255526730203
2.5548843096190685
2.4766264082226184
3.126723228171624
1.763093246385072
0.31398638216780794
-0.7847130219244884
0.26853349040144936
-2.5363710725835458
-2.0810005225853394
-1.2594861404136248
-0.9300110945414432
0.08925786314695405
1.6219274076314616
0.9350416194941764
0.7163382722093907
1.627409878675917
1.9429550812554393
1.0406367461401222
0.3088515018802769
0.48024289488373434
0.6297420631694057
0.7535418756931402
0.4825944984165753
1.010569614127586
1.053816695945632
2.55158830773389
1.4795734983144142
1.3431532903237968
0.8610777224832662
3.0691236806509314
3.300676983334454
2.3169105262162866
1.8804408517006372
1.5349359116847716
1.274310437960424
0.35060602025559817
-0.33985398577836035
0.2778559437057888
0.435971793349227
0.5806075006284753
1.0739272314013426
0.3528892204682187
0.1588801723839205
0.023775736056265866
0.6739659234630737
0.08374140930149876
0.731074500180156
0.13450868543679628
0.40511841077450145
1.729283373915311
1.2709220781507848
0.14319829551940955
-0.001664974503863761
0.2756994366559975
0.13966658758757594
-0.3259963479564356
0.801216281060517
1.687545984248184
1.6140068658035274
0.7814219639976581
0.8516289458296326
2.013799302033902
-0.41286913909491574
-2.6780161270189633
-2.5285521009798093
-11.161212850550118
0.7236201704414622
24.16564306979935
7.762682311763228
5.467413496011803
-5.633193116917053
-4.9627955805162145
-8.20079342591627
-8.99265237179402
-18.18270801610618
-13.94232865475001
-8.393551591117227
-1.6936820495624652
2.7277893347443722
-6.5973041476684156
-1.8593620842317167
0.36094339732358005
14.138987129530971
10.564148368849803
6.571643488211426
2.8424615260708492
1.3397982181439656
6.104217631754494
1.7077792118762236
1.927231451113379
7.312619797634916
5.214535628953739
2.7382915045886325
1.5358950674344474
1.0234570691414522
11.02130023387292
8.438361744861766
4.004582619895211
1.2273882599290058
2.825082069277329
1.5846432131331232
-0.799116226113566
-0.7149118279903937
-2.737611417842354
-2.7195829028340603
-2.2028850719825623
-2.0703421465285037
-2.270307963913724
-2.3750717387382703
4.593630360689147
2.2364067097307236
-0.48462874740995554
-4.852798687171086
-1.9107000365643971
-1.716339136867858
-0.4306606627298446
-3.481414634552509
0.0531025820926212
0.9930278061664827
5.7219738941577605
6.336209488775949
5.143070824337885
5.535382443855367
3.1597111795506714
2.3560100501495276
1.7408803868517313
1.2936737582160465
0.6193258704744424
0.5130783983619429
0.1160051023223678
-0.14388992848550147
0.07215387446463184
-0.08641875135477428
0.9263974658489438
0.9931882655218299
1.0358954412183101
0.6913186966599764
0.41885377182506434
0.2135627968559677
1.173049970090183
0.44920299854496093
0.9831405571884819
0.6636449048155353
0.7778991342859395
0.1303038986156655
0.36903214324544265
0.20119197875224143
-0.6581261554161202
-0.20118553420512886
1.2887867112152998
0.9701015996251061
0.6918316518069028
1.9359315151384577
1.041918455080975
0.6839608951380641
0.03494680525501381
-0.45701664793581726
-0.44205651174927685
-0.3974882609984558
-0.3377691831668328
-0.2732301748570939
0.15791004726942287
-0.24036932704305408
-0.9208514924830518
-0.6988206530317234
-0.5031245685057052
-0.339603057607616
-0.20938643909129667
-0.1105420500583298
0.32932920329068
-0.44574459238719877
0.04750580413722427
1.171954786735276
2.027082640554327
1.5381811073048635
0.3699417204254707
1.2875433043131996
1.2655288667688913
1.5992194762159664
1.473040762070844
0.6184242590799158
0.3189871239615796
-0.2640831362870675
-0.32196955741709643
0.035754412441524996
0.33820483583798816
0.21304274799402573
3.0665891509711494
3.416626080197171
0.6550157523021811
0.6743703170110972
-2.237028202747398
2.5515623546035253
3.375902916912136
2.471163052544709
9.077367263483296
5.267344168926583
9.868097245528883
13.339282877072508
9.185199964341734
6.85946169800682
1.6869048875037675
-1.1627625016966636
-2.818543729193245
-5.353023929842283
-8.189995796802393
-2.3824173103457884
-3.9203769494240794
-6.53129408615097
-2.556228155888639
2.107867890543825
0.5178389793574665
1.367183623576253
-2.4705683378330776
-1.804783775291483
-3.084496746138046
1.8543867356072026
3.486920871807753
10.90545104949073
7.253233833045304
5.976297191363429
6.328957039955043
2.4699094963121837
-4.6154328503978554
-5.937521100293811
-1.9047608098749853
-2.6273878526851147
-3.8505707826619484
-3.608052259661849
-7.751414258590651
-11.232344744125825
-14.097950174956246
-11.633938557318796
-7.259699991909708
-5.605882854829333
-3.9860680519815794
-1.6995943528534496
0.32707108280792296
-1.5787208497667602
-5.056053973972876
-2.6414669935972848
-2.960433928002327
-1.7696559563836576
-0.8772930354810325
-0.24422654871162444
0.912214664130669
1.7287221162570447
0.4223174747386944
0.4317040803193642
0.7720151053247923
1.004972718799826
0.7829606568823391
1.3179636392494536
1.3412234398381888
1.3287956763796147
2.400884181914164
2.467393928184484
1.3661866740489201
0.8516597653659874
0.45916303163743105
-0.19379474127754098
0.06729939925321288
0.3062396715998399
0.5122088435910672
0.6809975753360697
0.8129026341056493
-0.1950168917272025
-0.23737311875265257
-0.24525264459770219
0.13794580224782987
0.8170452584005312
0.6023894461328868
0.4190112832584004
0.6386357762951234
0.80600001561626
0.5583873835564857
0.7263856122567777
0.48549900888739894
0.2948485471131996
0.5197473196645295
1.4372601738822834
0.6659213508315077
1.1526572410988898
1.1585798262110532
1.1497188353028855
1.5009151112253822
1.3935987624685429
2.400633857515867
1.6887218057640152
1.8424767268612239
0.8460015017032281
0.4389248030065759
-0.5903157569452059
0.12264890351761404
0.3532323854150122
-0.18718059452638058
-0.2242472005712991
1.6136012047199144
1.5681821173959989
1.8630496601551252
1.6913987178801544
1.1594115761350086
0.7314394601150049
0.40313808844488574
0.16384549259174166
-0.00024158910361561352
-0.10381281808471399
-0.5296365701818011
-0.8358377884040621
-0.6735040769816942
-0.5175071428357827
0.3594670987859133
2.1495207838106953
1.2939740313014731
6.470567971413767
5.9920954109166535
1.7654285393301201
1.718793054114212
13.878342332253887
9.96035275469308
1.0857202889859376
9.241630756936527
17.486085510096586
14.099375560741889
13.370968433839629
8.587724703163573
2.594084534265952
0.997407219221342
2.939099258369514
-1.2524941579176092
0.43754767453134313
15.956539283148919
7.335659542061661
3.3063505628298877
-0.18662165828673993
-1.2994859494529245
-5.665119591551959
1.109441561229982
2.8825850933301713
0.19414072802150395
0.2963049094192355
1.8914599840855695
7.569728550993345
4.161369885103496
-1.957013975608441
-4.484939104690429
-4.068569964615196
-3.1932101281414864
-3.861611300110018
-0.23902865675865392
-1.0637266040709763
-6.531138571388304
-7.4169648853041
-7.943069132870501
-7.094215295610123
-7.787215727702329
-6.398191786354484
-3.407846297360819
1.1217993356293388
3.790563321874568
2.701451656512128
2.3776980793922995
8.252054316091382
6.388019274166236
5.441039288779852
7.519279505485275
2.7607404124473476
0.8244987900483094
-0.2536120694297637
1.5872613431192273
1.2566137881583086
1.7648547174762244
0.7091078095281956
0.6441752964502735
-0.8432905029963231
-0.8476510878454155
-1.151739942639817
-1.3316588706725347
-0.681519539999241
-0.13747210712457214
0.29637063000179453
0.6261685475439447
-0.2419814992445921
-0.19236775300510942
0.22292500240654284
0.17816141421296744
-0.2329406016903972
-0.5534218390224418
-0.422542729961018
-0.6750300035060921
0.6144959009733608
0.5120732489569989
1.1440980928396178
-0.23232149948123992
0.1535645013109605
0.46443337064081264
0.7032427318710841
1.6149578571869352
1.5632124117431239
2.591853484705341
1.8783881793392354
1.2787199429650475
1.1672264363385374
0.7148657494070179
1.109856984499015
1.0612606160550948
0.6570272958349032
0.7183112775295699
0.7793823439531724
1.5728391546680554
1.8184684546922953
1.250588656784914
0.42402622805006907
0.5264322480640127
0.260023728995859
0.4398624159524883
0.22921662906831944
-0.2906656982872081
0.06213770197464402
-0.009300877412465793
0.31502426027811203
0.9428863755849752
0.3171987010005092
-0.18246486195706152
-0.19418049205777999
0.18253821880997317
0.11663124947828288
1.1718151771416871
1.6145398559843918
3.030723715416479
2.2378179033889865
1.9281254953453955
1.2901816977264788
1.153613607866554
1.7925634698722077
1.1858195861990475
1.077240547699149
0.6338696559386252
0.3035992594118442
0.07097247393964796
-0.08152714114069397
-0.17132447952739
0.15428414806459345
0.42704190550397547
0.6447621475437797
0.44175114592309606
0.2784880683403467
0.15329050920862552
0.062071837442133376
-0.0004476942633629803
0.3288047286189904
0.22130999842828586
0.5045491484294456
0.3540417909622775
0.5995802415503616
0.7864074849503562
0.5526388436931131
0.7298337252896822
0.8631654131048678
0.5895254735743425
0.36993193260064766
0.20190648426967323
0.44847347307262825
0.2792699843530907
0.5189463236914377
0.7084795241672424
0.8512972653010148
0.584588987973274
0.36976373009828833
0.5734482176435434
0.7359288068583688
0.49080058509393276
0.29705109339440217
0.15113211318717723
0.04700322008063693
0.346216858227194
0.218374746214712
0.4890015362899426
0.7004534513205155
0.4890602023222928
0.685432632833917
0.4657129814231557
0.2899976104480655
0.5247105429952499
0.7106522792106793
0.4823437541086323
