0.9524036173250832
-0.7025770052733995
0.35388509053475525
-0.5488285036948934
0.2180026142066266
0.6350309172084918
0.8754558155487064
1.0174922652681673
1.0997727082260196
1.538799252972809
2.224196518281394
0.822937002768098
0.10710077911455174
-0.42818689646632346
0.29781849545533534
-0.21680105518539908
-0.23484547829469613
-0.227568799727865
0.16395566104454146
1.2152024132168422
0.5454005245476089
-0.0001935135611716987
0.313469401023259
-0.17144138920546415
-0.5433811827595041
0.6603387725520692
0.8687474603284842
0.6420565173818753
0.44793073431670477
-0.07890015157269714
-0.11599483758145959
0.23848966264557758
-0.5832728572943102
0.2601166991008559
-0.5439428912458362
0.3074976383460871
-0.495243713176006
-0.7528996925747204
-0.5665085167572663
-0.7725114616177262
-1.658011701921326
-1.586295557086156
-0.7570633301623353
0.2747365393468246
1.4318934747551189
1.9183305238285773
1.125855104115639
1.1940167303241234
1.2216324512420464
0.8527704831687188
0.5521457713708378
-0.050199901529142
0.6001232765470815
0.015849907176394784
-0.4337244925955268
-1.1312268274677835
-0.5345393402038571
-0.03591513782242617
1.4672409228867727
0.7740135214393495
3.513591465315331
3.0187892844070747
2.914696760219972
-0.5418723386049211
-12.085654898182172
-11.290403659592238
-13.975407927275779
-9.484230248000664
-6.842464654691252
-8.766016487757991
-4.338357489063871
3.174959819902736
6.276977582491403
0.6298150443169916
2.2493904216785845
7.0978085774269895
6.651547620542576
10.135231499208912
15.591095363882449
10.327520942525396
11.844593322795426
10.313341024702996
10.47866800962984
5.383400471321437
2.5271866270744696
0.44376616186822204
3.8066812058647517
-1.5303605593361826
-5.572665541250995
-1.4713635901392905
2.31853568973087
0.5285619992084061
-0.5131494292597466
5.347418974154409
9.524993386467113
8.91050853606102
7.105806516059504
3.3486725086493436
7.029204865499626
10.275327981556838
9.38187342078566
6.336997967646375
1.699100840268306
-0.7345423403939941
1.604612018519402
-6.365030394449837
-6.1326227107224165
-6.3949145510256225
-8.21364589037146
-5.0000804203694
-3.8104092246402006
-2.467365424255534
-0.6860657385216009
7.288268406163346
6.696235531335805
5.580650192351955
4.512409155287844
2.8215620086389266
6.612071891263261
5.088391726234259
3.4329410618184446
1.7463808722948875
1.9381630700978878
2.143606322260085
1.2352915735079428
0.19502332614540785
0.9180819936467826
0.8026055872117799
-0.7293573838466553
-1.508234805576485
-1.3016515512214035
-0.3304370802749672
-0.2695031797721994
-0.578307618579005
0.2992930969964548
0.6197782688901304
0.8523155657019954
1.0108538535258271
1.8474514303182996
1.7298104110379682
1.2288684634502811
1.183663178470555
0.771845169262932
0.4505316609024225
-0.1568013580914973
0.130156996566463
0.3804313356698005
1.3250335196335519
0.21102727019741696
0.06943469867038747
1.4492735705830324
1.785680803951269
2.0150880887083975
1.7900309363242426
1.2164908740766083
0.7577505795863202
0.40793427834453455
0.15467792997902946
0.351190039667799
-0.21057038961158253
-0.25925549105377477
-0.26939185268327814
-0.2543864791494518
0.14398524958170972
0.46349765201630466
0.707838141968125
0.8853074376059721
1.0064591637358262
1.0824306950925282
0.38647043521603164
0.5743114001355805
0.7267211719005151
0.475966699955329
0.6485301982646825
0.41671173375347814
0.6059379114785161
0.7567092946435725
0.8712240604585151
0.9537507270132748
1.0095256908005956
0.3066077464056174
0.49640173977619834
1.0249211057029908
0.6986851899562285
0.06852748643670836
4.37872192147004
-0.4057410151991281
0.6043694187402608
-2.2544514703820107
-0.749460163027245
-0.9761693675862668
5.515165732699675
1.3086077692405196
-3.192726594951974
-4.442691842784189
-1.5892302144280825
-2.582428414424862
-0.741277542313552
1.8243892649489326
6.3567081246658255
1.6347692424074491
-1.0851849238719962
-6.5110137538032955
-5.080614100299748
-7.460764599620173
-4.3722200793740535
-1.4679316811667453
2.27478645218216
3.617768858377537
6.339413781106804
4.950846487772074
8.47377591444219
1.4716383326547984
-0.41189191671251946
1.5115474300174148
1.2390407494477733
4.366187101807812
1.6264254527182662
3.1365901926138253
0.9993142484033344
3.7564915833943666
2.9642694127084948
7.100978926808983
4.730409489946705
-5.332572984178125
-3.5033981570369215
-1.8318858673648997
0.34465404763659535
0.6138800707308167
1.1832116957089318
4.557026987975545
4.169945324307343
5.5965932535692176
5.134018534204002
5.778488656865148
0.6726573893308228
-3.31926732982136
-2.603925298371435
-4.446773293643243
0.1653801003986386
0.5403313819677775
0.8135663530550313
0.26350389151867326
0.18453618590783893
-0.24866586739349444
0.5242091600152142
0.7607088065300408
0.5603409294038768
0.7580102001977005
1.270715170524698
1.2836520693816127
0.16322279786839666
0.3900598896498296
2.793845934060789
1.3274134557930404
1.6119992054317867
1.4538045033946752
1.317876867665559
0.4694343231811503
0.9231055032713993
1.2950792635331116
0.8485484759217274
0.49922583402137427
0.23902754598111986
0.4244550939533175
0.5872481131192587
0.3541305946942175
-0.18986351554715797
0.13970852271937062
-0.32124603196043217
-0.2974972415168563
-0.2588665861136822
0.5234623638263479
0.7659897381393483
1.3063802280761267
1.702647887724483
1.60775699285015
1.8682478734726624
2.0431677365001697
1.0441082745819261
0.6196594881717512
-0.8035949177527757
0.3354868742190573
-0.5771170537977197
-0.8976256610695197
-0.7394150295161881
-0.9494703696684211
0.3886491246786372
1.440907851219543
1.4917186953801138
0.7473540673831216
0.5072763021906573
0.3154061507146974
0.16921521804895326
0.8008504175778886
0.9262028232797757
0.27383051141336856
0.12945269031011322
0.028019296090624667
1.4365018785273251
1.4233207682980966
2.487423160663616
1.8046426101943764
0.4928329755010228
1.3100323377513496
1.5915320180328512
1.064328974829781
2.8590496707168835
2.3982150105258095
1.2588156669661985
-0.008663818585784355
-0.2296905374953419
0.017708672720277208
2.4640611243009984
0.6820182489624362
-0.3668792521744868
-0.052763780857903564
1.33524810127738
1.3171887016839332
1.2805852467978196
0.12912414587121135
0.7077660240616167
1.1757453521740717
1.5366784795381232
2.53872641756389
1.075321148400586
-0.09289708068890046
0.49280654529578505
-0.49242144399246657
0.24055073846454944
0.10571103448121072
0.7495581612413004
-0.2193633032040745
0.1335212197048754
-0.31222423005630606
2.3012134689455435
2.8497106356082313
3.207925696834031
1.9428058326292643
0.5416106474582103
0.19244517746445688
-0.04327855134044405
0.18003082363015543
-0.35121262596710945
-0.36945717534345823
-0.7203061852574573
0.5107200368378315
0.010924981890441221
1.8271919442903994
2.857236156483246
0.6488254698005926
0.7286833669494814
0.06328370627877711
0.2960968795745846
0.4990038280241824
0.6669085439035948
0.06200238127310487
0.7017940261263069
0.47147996936202524
0.2886179875438265
-0.5871300814516325
-0.8835754919472568
-1.0799760828707656
-2.6723571041878014
-0.544415930609647
0.054001356620265506
-0.5991039105011615
1.826763537767142
1.8464010312302306
2.160233731461023
1.9769429177791564
4.733095978427571
3.4939445319331512
2.80272527814617
2.5917993828598727
1.6742448262563565
-0.14410635752952117
-2.2563447190259156
-0.8583372699802836
-1.143935993167951
-1.681488201174358
-1.308787138286187
-2.4442509900982534
-2.9160110295461585
-2.114454109263468
-1.0717294617337285
-0.6175195965522264
0.08698078322235808
-0.1330868729048516
-0.7095856916156448
0.6673639492743162
0.6159324566234847
0.9032102702135707
1.0922631452516531
0.09822515950893629
0.041332917920223006
1.4768771035441797
0.7401997531553577
0.50554351956042
0.31723373399865606
0.1731452980605595
-0.30026329931202433
-0.6547303939008252
-0.5372575257281933
-1.1577799387310281
-0.1416978983718813
2.144682927408766
1.682313949459382
1.6254316836161014
0.8024547194614957
1.245742449982784
0.4794669297575549
0.6155278467794564
0.7319733011748523
0.08941046449920265
-0.7714939366766392
-0.30654708191869673
0.09079227045250854
0.4138793811112049
0.29573277680507193
-0.17103860561249457
-0.16289682722746668
0.223872486405381
0.5297126645511281
0.02278798371260915
0.35886618250985225
0.6219784066464131
0.4494342735821972
4.3603440598638965
2.195302525575658
0.04700175812288743
-7.1610998498091885
-4.541237670809443
8.772496849880206
14.30972062000039
7.1969798274624655
7.239199291506637
-0.9437062279797654
0.436423765276968
0.9329462765866109
-3.382275733538222
-12.162641838443683
-6.927841639125159
0.4330899834066635
-1.5048475109821275
4.656954567304842
9.000107700200736
11.401894949169352
4.854600404801706
4.702535608569646
2.7072834296921227
3.3652079645928756
0.5922809587317861
-4.103990743877865
-3.1925001506174815
-0.4405160403683346
0.33383693288561556
-0.5196631662075679
-4.125600328271744
8.247308032807528
3.8562366338144995
4.6457434981012105
5.541003835136632
7.617408772282151
13.17313024298375
8.82263465146826
9.640427433342163
5.392359403982003
2.7810513550539593
1.5694449679915592
0.3906095608817526
-2.5967591088939628
-3.647072407613096
-3.890050003961737
-0.575094092954
-0.09255369509610778
2.5110075365596907
1.193168869378888
-3.9480639652396325
-9.019077473693013
-7.982227037117781
-9.51258905562485
-7.199278341296871
-5.9836609222494
-3.1357260027722993
0.17633363199622698
2.6505479198168675
4.7679159206652
3.621730900943245
2.5309077878067705
2.299079608612428
1.6808183136305734
0.7882653490869935
1.1887562165951457
0.03130401669793881
0.24524966619790242
0.4402853663445268
-0.4981725209834759
-0.841275645026561
-1.4391791240582037
-1.1238313749038502
-0.46676742287083317
0.06458843477291776
0.47436403511076564
0.40613923950038666
-0.037888193944656146
-0.3946536370792519
-0.29929621217731683
-0.9526876839427816
-1.079710854310352
-0.784882588560757
-0.5363904178753491
0.031791421370859885
-0.269950913813952
-0.1497649327655003
-0.43067655332825555
0.8214895061223007
0.6790343425774296
2.0098927548368417
0.7960886585181932
-0.19236643990084978
0.146041189467028
0.7962203673767924
0.5649614338924156
-0.7319835213153078
-0.9935958980407715
0.31548093719701975
0.6178456540167571
0.8390968154896383
0.2541877328504747
0.8913336728955062
1.3816620035722318
1.7403432032049413
1.987414658771763
1.7757079389732178
1.9491068028447294
1.6939333261259395
0.7403295864501938
-0.36865814456861523
-1.1983959833561062
-1.0485399294265776
-0.5019354544714492
1.437225260803554
1.4697800190020014
1.0843195054951709
1.4921906959625328
0.683974620844425
0.7773086803225813
0.8539257467740735
0.17652894036563738
0.7614565112251146
0.8604518032973918
-0.17202214071665722
-0.23170696235255056
-1.7257216286766321
0.4685596652839381
-1.1042903319607569
-1.2212725766101635
3.5153779512330967
0.9121712501457089
2.8545272854341794
4.699373899356984
3.4660436673301787
3.88677516270245
6.742189054106625
5.93366612723592
9.614374801154856
4.992247086577202
2.755043127765034
2.5190528500768687
2.0395964403803215
4.6832532002986245
6.7746734187098765
3.1896767723373545
1.0925342308784487
-1.5831975637318079
6.041936876275759
4.670559700700666
2.4070863731650487
3.946135066293107
3.3169717731177286
2.0777594574912044
1.1303388297205048
-2.507082470155896
-4.133818691732089
-5.229622227263543
4.05135646570373
2.488208636336652
4.8316231176786175
5.088051839987961
-1.4728658235819996
-0.3425427990345
5.060863671393044
2.9941579379026866
1.2926061925544745
2.537582411415032
1.3070872463385097
2.927752599553415
-1.3352872815641796
-2.4234867596117056
-2.4189164379558568
-8.57095767739734
-6.93634569033867
4.15312462284049
1.0124917816426677
-0.5008084821746894
3.058716921825545
1.7224110835980895
2.426449217930945
-0.7703731206353677
0.03462912882159275
-4.093924629659972
0.862037168224477
0.0033964431416013685
-1.0665418781683846
-0.42088685813218274
-1.743810511557819
-0.5461387249544434
-1.0624731650955646
-1.8316198966931299
-1.6726541325074307
0.3245804818412723
0.03406201931100594
0.13717836076675416
0.1913775797164916
1.3164472023166376
2.897858770958622
1.8511340060984156
2.807216182533078
1.6621454646314044
1.096411469487654
1.0208264803784908
0.6027675783362514
2.5030659442273993
2.5058549803000485
1.7300503243364165
1.8401852004819992
0.8163541166696204
0.39436292977968257
0.09661990142431058
0.26965997537455344
0.43693189753889805
-0.15010090398909337
-0.2195454187805224
-0.24594265650356237
-0.24306615880142082
0.14674898540688047
0.09195361657912213
0.4187406399314056
1.0399161663028882
0.40229762994401086
0.6257129711052818
0.42781092076589133
0.26888081828329913
0.14718207221939694
0.42734388532232914
0.6497144153383392
0.44924572059115636
-0.08169413593002883
-0.1211616824498805
2.813039156767587
3.2341402162112147
2.7440108412833206
1.9273283364858649
1.6272954031525981
2.125411161639
2.509369146510947
2.0533777075049375
2.4191802460061282
1.2215204290044008
1.3949687655076959
-0.6595757449404631
-1.1159932500787675
-1.0262333173514926
-0.8880270139954148
-0.3615307804961334
0.07903428223076436
-1.4130868335910876
1.8636082746698073
1.1016227771887122
-2.127218104657421
1.2667276292725353
0.25750307286771834
-0.559004703401429
-1.926344480266348
0.3638489475564133
1.4406734336147204
1.8756978930993726
1.4228386767279093
1.392576727009488
2.4483385267628837
0.6573390588495571
-1.13262454831917
1.9337543097517957
-1.1786979239033215
-3.2374784305918283
-2.544593908151467
-3.379730213204141
-3.5875606168759107
-2.9347094456744705
-1.6314601452565005
0.875127492080026
1.679254555091644
1.1063370393361758
0.5772868154475517
0.48665272219047706
-1.8213506712192689
4.131971569408258
1.380181691519859
1.7168040871408958
-0.9976704867517219
-1.2653854132867988
-2.5193701185554316
-1.9539265221370827
-2.547763368508415
-0.3777892658382971
1.3399834885808461
-1.4197599127560845
-2.868030567602634
-6.532543880228165
-5.224870307717341
-8.119179092405528
-5.830512051147753
-4.659752939413076
0.7149301467449449
0.7902396629677781
1.0642259379178336
1.8900114672222956
2.788766649801339
4.110319296307035
2.803205674027047
6.83743029922789
3.974959528434132
5.300508202139775
0.7420844721486182
-1.3555703018389156
-5.839452661205693
-2.1546374296400055
-1.6817830460309913
1.6998532163509128
0.27975713019308945
0.9660685136754465
0.3754387208695482
0.9993390703085259
-0.0020214732938850233
-0.055571424562720906
0.2837234873294982
0.5548369483490683
0.39267884734184166
-0.10958047088361089
-0.12872588455452263
0.6067878785281999
0.81313953369556
0.5895729196135548
0.401587585723631
-0.11768466479835488
-0.5156129439287278
-0.8053176183483899
2.6831821987971365
1.7005614286987272
3.0777634068947575
2.9938828258118466
1.7558997878131666
0.7553734088493089
1.0903126167983468
1.374043771704864
0.8655300725046686
0.10704120281330476
2.12104056318907
-1.460898368971883
-1.6609874775317794
-1.7347875484574158
-2.4603683927083875
-2.223941516140422
-1.6087471165447793
-0.7238567602545616
-0.028243871675375676
-0.24476711883071348
0.6645904337727874
0.2387267626526105
0.24013612936972883
0.2219458051661569
0.19282724414748173
1.2651820264141733
0.6052695482243609
0.42979694445729644
0.6535553479218319
0.8223439432496642
0.20564562696858435
0.8265795132152435
0.20575914372010995
0.45539541294743424
1.0249521961742085
-0.01275128327007069
-0.4570787772874837
1.062704684794069
0.41211691866566025
0.25787812438247987
-0.22867100147714353
0.14025030165317814
0.07278071903037837
0.024403436041656366
-0.7454493647960255
-0.5937760531520636
-0.08215769699388287
-0.041869189855565744
1.092951090561093
2.329590034309934
2.505647422890766
1.470559656303151
3.20159963788152
4.516776519579875
3.252797880610551
1.827692670206757
2.546760620578261
2.0101267120024686
0.8537099172982405
-0.023638850153550384
0.8196469772141513
0.4192065155179352
-0.23559148671325605
-0.7097107148390639
-0.294721115067623
-0.6672326755322521
-0.5601581541373524
1.0266921220018586
1.1586785200252596
1.2293955009515858
0.5184408456191217
0.6863299008465953
0.817243300226439
0.17703912630729934
-0.6893387761595794
-0.23437507681838599
0.15092732778576484
0.8303235909329006
0.2461138349245504
0.1469702054468599
0.07270191803123084
0.38872506944659213
-0.8379413334210991
-0.6780807029565089
-1.2606539993665993
-0.9498128545455361
-1.4154795354670084
-0.6498456505262764
-0.03540157885238682
0.434773481997638
0.4078253713421624
0.7270950806407931
0.5816518660965058
0.8123025636101894
0.9728290586044956
0.7076442211023588
0.484003347087079
0.6730454777042231
0.44968233199853763
-0.09574579639254788
-0.14324350936864638
0.9442108487655482
0.6880200745477869
1.5776753839328972
1.8836518513478027
2.0860634620312015
1.1009516266598267
0.6807916652485755
0.36144644721454233
0.13112061382258539
-0.024705464288162064
0.6162549525458165
0.39347528622781924
-0.515804827429927
-0.10171406592637855
-0.49012849909145545
-0.4071655362954212
-0.6911247287672407
-0.526247534182853
-0.38034516999781426
0.11067170324152947
0.8600054807128767
0.6862761431891351
-0.2153023913144373
0.17977398584022047
0.8630486733787155
2.1221186842099433
1.9601355126509699
1.0442129284901422
0.3035549888065988
1.2071383409259906
0.0766037316939383
0.3039435249707667
0.8714578851833394
0.21334721409152957
0.4388386925807317
-0.48027709846564015
0.662153977986236
0.46308165965881953
1.775355460713018
1.3058264420024415
0.5369652765224316
-0.8079198606237172
-1.0937639905285264
-0.529398689871773
-0.05158837873212985
-0.03507224685666879
0.7155138654833904
0.1853694730661174
-0.6121880700906441
-1.225966029535162
-0.9375809577343547
-1.0497100650949844
-1.4852352710386547
-0.6950302001022551
-0.4301701408289889
0.5085915008029342
1.219744835237954
0.6246421905587696
0.857231953928481
-0.0906461346717864
0.633982393646781
0.4626150149941756
-0.051015042322031356
-0.8193648679973232
-1.0295560213777568
-1.1599041973443187
-1.229489559723603
-0.5178130246230906
0.4207626354839199
0.7700907330771052
0.6402075607891182
0.13865639122302886
0.4689206078159305
0.35093169434015026
1.3546191756081936
1.7503087039511016
1.6512659246804895
3.011737517016818
1.8164820512684436
1.575489173096664
0.6402488497744495
0.6568650018778004
1.063305173168423
0.6569491722329
-0.020473293791803848
0.211404651206275
0.4204504195780184
-0.8762730176906586
-0.38890841116093
0.7665001930793096
0.5673299111393415
0.02782735127803193
-0.025748004659515968
-0.42621133604449224
-0.3559335622132156
-0.28328544902724917
-0.5835994710708989
-0.06890446230932235
-0.7650992389128379
-0.9340496097303447
-0.3085778226247614
-0.1784218152636447
-0.08207599288141958
-0.014730185476140278
-0.3397297520717148
0.14000420390387386
0.5111980109598446
0.41568934740523616
1.4284235830194536
1.0865877260042405
0.4157606718135082
0.24845502214621448
0.49177790389546283
0.3170856014372631
-0.18708044960045056
-0.5699581182850133
-0.10847054882090412
-0.09773960039591384
0.28548720788921167
0.21550905179353663
-0.21447873251362154
-0.1796634180531987
0.5939637471386265
0.45670957142745106
-0.403601423435638
-0.33619722438575317
0.4704411835495722
0.7325282632608219
0.9192394645250711
0.6748433658309418
0.46693290789359687
0.29857591311098064
-0.20011987937124964
-0.5785080476441675
-0.48219314702461913
0.7229834148792361
0.558689963579984
0.7792646919278404
0.9360551218628876
1.4088061152931766
1.0168611810619093
0.6886260083919676
-1.0480534650413198
-1.6416181075588794
-1.3074463509209275
-1.3612819482352325
-1.3665633506355466
-0.9720859000857083
-0.277123257580176
0.2630903380021074
1.0313722197601436
0.855989092793499
0.677254490726118
0.14191917056515124
0.4505957447107244
0.6891205519911499
0.864405538251935
0.248466467998682
0.12910475833698232
0.412178312098926
-0.09978052924722575
-0.12582804169115652
-0.5009607834502824
-0.40875222487550933
-0.686748475222652
-0.8871407986501374
-0.28524589875164874
-1.6465733026683513
-1.9556174924924197
-1.416875172613755
-1.7015541626199007
-1.536302712790509
-1.7580514281899045
-1.5485822286640443
-1.372753711565586
-0.49476094010854654
0.17829454240954767
0.6684925113358203
-0.10175764495731432
-1.476225032458666
-1.0697271612566388
0.009268537463326565
0.4799410981217928
0.4497182615835044
1.5009645589796146
1.9150507106792842
1.0771597766610244
1.1205190650968189
1.1383165056744018
0.4011897234751133
-0.17550040396146882
-0.6050836119158443
-1.2763498512389744
-1.0202546594951776
-0.7775136622349403
-0.19380410942078086
1.3756126077059916
1.4688693956790573
1.121803259672156
1.550935065944181
0.7514735603561686
0.476285065543092
-0.10397484323159245
-0.910181073366522
-1.87442824704162
-1.4665444299189532
-2.9359485699872883
-2.184171833927314
-2.27339352625762
-1.939311563561393
-1.6537678026133062
-0.3154959590887296
-0.3927071458399547
-0.4897042336175888
0.5145733624911617
0.8979262381551062
0.04199359486980403
-0.29192924608768156
0.17837332317328453
-0.5654945279845704
0.32565765933223256
0.2839169693870374
0.2350068050859024
-0.1832296660403957
-0.14347848890391712
-0.10698290621154219
-0.07544239065907643
0.31915015225328947
0.253672642529281
0.5608664578664773
0.42100730304502615
1.4053199259173719
0.67869053318225
0.4552649436129771
1.3840989809601192
0.9928176008449322
0.6669117277180036
-0.3291993357178735
-0.7221255073925263
-0.9922637749653198
-0.057361584499502793
-0.04104940695220716
0.7098828629872223
0.1804044173324849
1.2270932392781393
0.9226901314217962
1.0258899873551965
-0.01707449049174059
-0.09569353461005156
-0.13772346119075018
-0.15331467777041996
-0.5196622589786251
-0.4204215776372373
-0.324364872290698
-0.23795046440054793
0.5728831279298121
0.09210655692794334
0.43918469126566206
1.0715458869616195
0.8071621583871733
0.20743352380569013
0.10156596737991438
0.7640329554880357
-0.1942836336160838
-0.9427556853871308
-1.130593679031309
-0.5014294485812597
-1.0909918541293384
-0.7980435782851932
-0.18100627244053868
-0.43499758725245097
0.09713438155885767
0.5048140051062275
0.4328465805623262
0.35302062443922133
1.0119486386708854
1.1377585101027978
1.20623836977006
0.864397633617724
0.21122166900142125
0.43999738107066233
0.2602354854376733
0.12607225983127987
0.4000423615646189
0.25198693994963806
0.507182125191906
0.7074473132282154
0.8571223198378574
0.5942802970486754
0.012439544462622854
-0.0666418509770052
-0.47995826394282626
-0.04483805222530057
-0.05580911434275255
0.310385319779624
0.22767610657971066
0.5260568725671202
0.7520860120396895
0.9144793753709127
0.28642301744267673
0.1563956507182131
0.43056742419893473
0.28021394417132717
0.9004018386924522
1.01061752050902
0.34198199624830217
0.1819219927528795
0.43510554891107284
0.27114134167041315
0.8834574634029811
1.3587361955446586
0.6036790867196464
-0.0004195451988422416
0.2761553659746411
-0.5977847088489925
-0.5235558529216737
-0.4350948960415144
-0.34467770633492756
0.10847664816525171
0.46539541826609804
1.4705728511253142
2.2266761666027755
2.0280866193964417
1.8210274336541594
0.887700611201699
0.5171771517088368
0.9795407479683971
0.9838317843324674
0.9878254240788252
0.6226277088043708
0.7112886309912818
0.4215148326655555
0.20508509327600172
0.05215494346765989
0.32015034765352
0.17467085767556384
0.4376354327003501
0.6483313930298575
0.07191598194878812
0.7289065412548855
0.1386098744685027
0.044165249054973016
-0.018968098922131915
0.6800546455608478
0.4888613020888468
0.6980020135922438
0.4853444497210558
0.681213936978382
0.4615119681386457
0.28614155298336774
0.15269235608305035
-0.6810607389488854
-0.5748445736886176
-0.8308007204005158
-1.0058331167274563
-0.7471837078660393
-0.15584083086018297
-0.05936662860349801
0.743628426119164
-0.4930359095000736
0.3704809190806242
-0.7983266615736598
-1.7111454234917396
-0.9150815340121197
-0.9977247768197075
-0.6813930787686068
-0.05886199273556658
0.049596275460372305
0.482813071491904
0.7974019926176232
0.27473119008882674
0.21216414654173937
0.15580715829718578
0.47653481063497394
0.3519203449814896
0.6139738932196066
0.4413974041785493
0.6660624471253047
0.4657433728622023
0.3022734374860715
-0.1936308751173858
-0.20208604053332774
0.177319183743183
0.11352292690954473
0.4329137712573726
0.3109212810782508
0.20920142054377197
0.49704841504961467
0.3500460256601491
0.5981146951930466
0.786655745860749
0.5539493289966939
0.36302439367176864
0.5823329582207071
0.3852850133639901
0.2302730260836871
0.11411543173751482
0.031716479351694526
-0.022823149945324167
0.3132449422171779
0.5799756330525933
0.7817395174053485
1.295144054529416
0.5692090187463571
0.35492066758886864
0.19143718217763422
0.07301712668138799
-0.007544672253762383
0.3108813121219864
0.5666621012427091
0.025198414925389878
-0.7667787218419427
-0.25869178857189656
0.5307664212660097
0.039841671767014364
0.015979552705827307
-0.0003545896269387582
-0.379324672438867
-0.2992033077697893
-0.22484831739819064
0.20864467610354248
0.17650579469203304
0.14219176575158793
0.10923096617782777
0.4484296763074226
1.075081920845821
0.8068130966647904
0.5733457715496717
0.011713026371966029
-0.05455305123667479
-0.09205320817047966
0.2602728282668128
0.5414762949155045
0.7554360157018202
0.5412573253393067
0.36303764414438017
0.22167986820526253
0.48351142502618855
0.3211607180806671
-0.17553770391276585
-0.18593179895706322
0.19096581312048777
0.49318845874849054
0.3555683088214264
0.24043505156211611
0.14864601996536708
0.07888763876699122
-0.3401061097977681
0.08031793392617104
0.4188109678055281
0.30999849359737
0.2166726781712081
0.14053902898192377
0.44999453716995325
1.0577451540932101
0.7789209704105653
0.9096923668480239
0.9994255582243581
0.6874347059008266
0.06716401628592261
0.6968457055758115
0.09185597649754917
-0.008149737842793565
-0.07063717702754763
-0.10447385944258339
0.2511518646691
0.16647688904792265
0.099792952728137
0.04976539518005343
0.014228190134418008
0.3593488497000993
0.259445064054461
0.17576016136360473
0.10896366691615841
0.05813638846954815
0.021429189272046775
-0.003447230520277246
0.3498081339548743
-0.11288832977349489
-0.10679434418383964
-0.09446175596802814
0.28951574752154663
0.21969142696863586
0.8955273158889994
1.0412616460093176
0.7613009835088111
0.15538232818039843
0.04974266766342823
0.3477848741306061
0.956451211747845
0.6862534708365567
0.8298337784295152
0.5653123065269441
0.3533992424876682
0.1915361936173994
0.4428175637535615
0.6457260091160935
0.8019738221061388
0.5476631399050569
0.34359860639260953
0.5561554432748163
0.35692498122144334
0.20278849441800478
0.08936740592382303
0.0106624078371329
-0.03987232089899402
-0.06860752272635189
0.28738906719624135
0.5687552769833555
0.41196399253782134
0.6489330907265833
0.4577427525748005
0.6693578935797106
0.8292246855665188
0.9437197790009286
0.6517875717025559
0.7843851093699529
0.8852274884964526
1.3266962327676544
0.9215264471544677
0.5925170898105092
0.7064166653724877
0.4329634782317931
0.5946137982418137
0.36018963580237673
0.18357548944424867
0.057490520434508606
