120,120,121,121,120,121,121,120,120,122,121,121,120,121,119,118,121,123,121,122,122,121,122,121,121,120,120,121,121,121,123,129,121,120,120,121,121,121,121,121,119,122,121,122,121,121,121,119,121,122,122,122,121,121,123,123,121,122,121,122,120,120,121,121,119,120,121,122,121,120,122,119,123,121,120,121,121,121,122,126,119,121,121,122,121,121,121,119,120,121,121,122,121,120,120,119,119,121,121,122,121,121,124,122,118,120,120,122,121,121,120,118,123,122,121,122,121,122,123,125,119,122,121,122,121,121,122,116
120,120,120,121,121,121,121,121,122,120,121,121,121,121,121,122,120,121,120,121,121,122,123,120,120,123,121,121,121,121,121,122,121,121,121,122,121,121,121,120,120,119,121,121,121,121,121,120,119,121,121,122,121,121,119,116,120,123,122,122,122,121,122,121,121,121,121,122,122,122,122,120,121,120,120,121,120,121,122,122,119,121,121,122,122,122,121,117,120,123,121,122,122,121,121,121,120,121,120,122,121,121,118,115,122,122,121,121,120,121,122,121,121,123,121,122,121,120,121,122,120,121,121,123,121,121,120,121
120,121,121,122,121,121,120,118,120,120,121,122,122,121,121,121,120,121,121,121,121,121,120,118,121,123,120,121,121,121,123,125,123,121,121,122,121,121,121,120,119,121,121,122,121,121,121,121,120,121,120,122,121,121,121,120,120,121,122,122,121,120,121,119,121,122,122,122,121,121,122,121,121,122,121,122,122,121,119,114,119,122,121,122,120,120,119,118,121,123,121,121,120,121,122,119,121,122,121,122,121,120,119,116,122,122,122,122,121,121,121,123,119,121,121,122,121,121,121,120,120,121,121,122,121,121,120,118
120,121,121,121,122,121,122,120,122,122,122,122,121,121,121,120,121,123,121,121,121,121,122,121,121,121,121,122,121,121,123,121,121,122,121,121,120,120,121,120,121,121,120,121,121,121,121,121,120,121,121,122,121,121,122,122,120,121,121,122,122,121,123,120,122,122,121,122,121,121,119,118,119,121,121,122,122,121,121,120,118,121,120,121,121,121,122,122,122,119,120,122,121,121,121,121,121,122,121,122,122,121,120,120,122,122,121,122,120,121,121,120,119,122,122,122,121,121,122,122,120,121,121,122,122,121,121,119
120,122,121,121,121,121,121,121,120,123,120,121,121,121,121,119,121,122,122,122,121,121,121,122,121,121,120,121,121,121,122,120,121,120,120,121,121,121,118,119,121,123,122,122,120,121,122,121,120,123,121,122,121,121,122,121,120,121,121,122,121,121,121,120,121,123,121,122,121,120,120,121,120,122,121,122,122,122,123,119,121,122,120,121,121,121,121,121,121,123,121,122,121,120,120,121,119,119,120,122,121,121,122,123,121,121,121,123,121,120,121,118,122,122,122,122,120,120,121,120,121,121,121,122,121,121,121,121
118,122,120,121,121,121,121,121,122,122,121,122,121,120,120,119,119,123,121,122,121,120,122,121,122,121,121,122,122,122,123,121,121,119,120,121,121,121,122,121,118,119,121,122,121,122,122,121,119,123,121,122,122,122,121,121,121,121,122,122,120,120,120,121,121,121,121,122,122,122,121,121,119,121,121,122,121,121,120,118,120,121,121,122,121,120,121,121,121,121,121,121,121,121,121,120,122,123,122,122,121,121,122,121,119,120,121,122,121,120,121,123,121,122,121,122,121,120,121,119,121,122,120,121,121,121,122,122
121,122,121,121,120,121,122,119,121,121,120,121,121,121,117,117,123,123,121,121,120,121,122,118,119,121,121,121,120,121,121,121,120,122,120,121,121,121,122,120,118,122,121,122,120,120,122,120,122,122,121,121,120,121,121,119,119,122,122,123,121,120,121,120,122,121,120,121,121,121,121,120,121,121,121,122,122,122,121,118,121,121,121,121,121,121,121,121,120,123,122,121,120,120,121,122,121,123,121,122,122,121,120,119,122,123,121,122,122,122,122,119,119,120,120,122,121,121,121,119,122,121,121,121,121,121,122,121
120,121,121,122,121,121,117,115,121,122,121,121,120,120,121,120,120,122,121,121,120,121,121,120,120,122,121,122,121,121,122,120,121,121,121,121,120,121,120,121,120,122,121,122,120,121,121,120,118,122,121,122,122,121,121,120,120,120,121,122,121,121,121,120,120,122,122,122,120,120,121,119,123,121,121,122,121,121,121,120,121,122,120,122,121,121,123,121,118,121,121,122,120,120,119,117,121,122,121,122,121,120,120,119,121,121,121,122,120,120,121,119,117,121,121,122,121,122,126,130,121,121,122,122,120,121,120,119
121,121,120,121,121,121,124,125,120,121,120,122,121,121,121,121,121,121,122,122,122,121,122,122,122,122,120,121,121,121,121,120,120,123,122,122,121,120,121,119,121,119,120,121,121,121,121,120,121,123,121,122,121,120,121,120,122,121,122,121,120,120,121,121,119,121,121,122,121,120,121,120,120,120,120,122,121,122,123,121,121,121,121,122,121,120,121,120,120,123,120,122,121,121,121,121,120,121,120,121,121,121,119,119,121,123,121,121,120,121,122,121,123,123,120,121,120,121,121,121,122,122,121,122,122,122,118,116
120,121,121,121,120,121,121,120,119,120,121,122,122,121,121,121,120,123,121,122,121,121,121,120,121,122,122,122,121,122,123,122,122,119,121,122,121,121,121,120,119,122,121,121,121,121,121,121,121,121,121,121,120,121,122,119,120,120,121,121,121,121,122,121,123,122,121,122,121,121,122,120,121,120,120,122,121,121,120,121,120,121,122,122,121,120,121,120,120,123,121,122,120,121,121,120,122,122,121,122,121,121,121,120,121,121,120,121,121,121,121,120,121,122,121,122,121,121,122,121,120,122,121,121,121,121,116,113
120,121,121,122,122,121,123,121,121,121,121,122,121,120,120,119,121,123,121,121,121,121,122,123,119,121,121,122,121,120,121,118,122,121,121,121,121,121,121,123,120,120,121,122,122,122,123,120,119,122,121,122,121,121,120,120,120,121,120,121,121,121,121,121,121,121,121,122,121,121,121,119,122,123,121,122,122,122,122,121,120,121,121,122,121,121,122,121,121,124,121,122,120,120,121,119,121,122,120,122,121,122,122,116,121,121,121,122,121,122,122,120,119,121,121,122,121,121,121,120,121,123,121,122,121,121,121,120
120,120,121,122,122,121,117,116,120,122,121,122,122,121,122,117,121,123,121,121,121,121,122,124,119,121,121,122,121,121,122,120,121,122,121,121,120,120,122,122,120,121,121,122,122,121,120,117,121,120,121,121,121,121,121,121,120,121,122,122,121,121,122,119,121,122,121,122,121,120,120,120,119,121,121,122,122,121,119,118,121,123,121,122,122,121,122,121,119,121,121,122,121,120,121,120,120,121,121,122,121,122,124,122,120,122,120,121,121,121,119,118,120,121,121,122,122,121,121,121,123,121,121,122,121,122,123,120
119,119,121,122,121,122,121,121,119,120,120,121,121,121,121,118,122,122,121,122,120,120,121,120,120,122,121,122,121,121,121,119,121,121,120,121,121,121,121,120,121,121,121,121,120,120,120,120,121,123,121,121,121,120,122,122,120,121,121,122,121,120,121,120,119,122,121,121,120,121,121,121,120,120,120,122,121,121,122,122,121,123,120,121,121,121,115,115,121,122,121,122,121,121,122,121,120,121,121,121,120,120,120,120,121,123,121,121,121,121,121,114,120,120,121,122,120,120,121,122,121,122,121,122,122,121,122,121
120,121,121,122,121,121,121,119,120,121,121,122,120,120,120,119,121,124,121,122,120,120,120,119,121,122,122,122,120,121,121,120,121,121,121,122,121,120,120,119,120,122,122,121,121,121,121,118,122,121,121,121,120,121,122,120,121,121,121,121,121,121,120,120,120,122,120,121,121,122,122,121,121,123,121,122,121,121,120,122,120,122,121,122,122,121,121,120,120,120,120,122,121,121,122,121,121,120,121,122,121,121,122,121,121,120,120,122,121,121,121,120,120,121,120,121,121,121,121,120,120,121,121,122,122,121,122,122
120,121,120,121,121,121,123,118,120,121,120,121,121,121,121,120,121,122,122,122,121,121,122,122,122,121,121,123,121,121,120,122,120,121,121,121,121,121,121,118,120,121,121,122,121,120,121,124,120,121,120,121,121,121,121,117,119,121,121,122,121,121,121,125,122,120,121,121,120,121,121,121,122,121,121,122,121,121,118,115,121,122,121,121,120,121,122,121,119,121,121,122,121,120,121,119,120,123,121,122,121,121,121,118,119,121,121,121,121,121,122,121,122,121,121,121,120,121,121,121,123,123,122,122,120,120,121,121
120,122,121,121,120,120,120,119,121,122,121,122,121,121,121,120,120,123,121,122,121,120,120,124,121,121,122,122,121,120,121,120,120,121,121,122,120,121,121,120,120,120,121,122,121,122,122,119,119,121,120,122,121,122,122,120,120,123,122,122,121,120,121,120,120,122,121,121,120,121,124,124,121,121,122,122,121,120,120,120,121,123,121,122,122,121,122,119,118,121,121,122,121,121,122,120,121,120,121,122,121,121,121,120,120,122,121,121,121,121,121,120,120,122,121,122,121,121,122,119,119,121,121,122,121,121,120,122
121,121,121,121,120,121,121,119,120,120,121,122,121,120,121,120,120,122,122,121,120,121,123,127,120,122,121,122,122,121,119,119,119,120,121,122,121,121,121,118,120,121,121,122,121,121,122,125,121,120,120,122,121,122,121,120,121,123,121,122,122,121,123,122,120,120,121,122,121,120,120,119,121,121,121,122,121,120,121,124,121,122,121,121,121,121,122,121,121,122,121,122,121,121,122,121,121,121,120,121,120,121,123,122,121,121,121,122,121,120,119,118,121,122,121,122,121,121,121,120,120,121,121,122,120,121,122,122
121,122,120,121,121,121,121,121,121,122,121,121,120,121,122,120,121,121,121,121,120,120,121,121,120,122,121,123,122,121,121,121,121,121,121,122,121,120,121,121,117,122,121,122,120,121,121,120,123,121,121,122,121,120,121,120,121,119,120,121,121,121,121,121,121,122,121,121,121,121,123,130,121,121,120,121,121,121,117,116,122,121,122,122,121,120,122,118,119,120,121,122,121,120,120,118,121,121,121,122,121,122,121,120,121,123,121,122,121,120,121,120,120,122,120,121,121,121,122,122,121,122,121,121,120,121,121,121
120,121,120,121,121,121,121,122,121,122,122,123,121,121,122,120,119,120,121,121,121,121,121,119,120,122,121,121,121,121,122,120,121,121,122,122,121,120,121,122,121,122,121,122,121,122,121,120,120,122,121,121,120,121,121,121,121,122,122,121,120,120,121,119,121,121,121,121,120,121,121,122,120,121,121,122,121,120,121,119,121,122,122,122,121,121,121,121,119,121,120,122,121,121,121,121,123,122,120,121,120,121,124,125,123,121,121,121,121,121,121,118,123,121,121,122,121,121,123,124,119,121,121,121,121,120,121,118
121,120,121,122,122,121,121,121,122,121,120,121,121,121,121,121,120,122,121,122,122,122,122,126,120,121,121,122,121,121,121,119,121,121,120,121,121,121,121,121,120,122,120,121,121,121,121,119,121,122,121,121,121,121,122,121,120,121,120,121,121,121,121,121,122,121,121,121,120,121,121,120,120,122,120,121,120,121,121,120,121,122,122,122,121,121,121,120,120,121,120,121,121,121,122,121,121,121,121,121,121,121,118,116,121,122,121,122,122,120,121,120,121,121,121,121,121,121,121,119,121,123,121,121,120,121,121,121
120,120,120,122,121,121,122,119,120,121,121,122,121,121,122,129,118,123,121,121,121,121,124,119,122,122,121,123,122,121,122,122,121,121,121,121,121,121,121,121,120,122,121,122,120,120,120,119,121,121,121,121,121,121,122,119,121,122,121,122,122,122,122,123,122,121,121,122,121,120,121,120,118,121,121,122,121,121,123,119,121,121,121,122,122,121,120,119,120,121,121,122,122,121,121,120,119,120,120,121,121,121,121,122,122,121,120,121,121,121,121,119,120,122,121,122,121,121,120,120,119,122,122,121,120,121,121,121
121,121,121,122,121,120,121,121,121,121,121,122,121,120,121,119,122,122,121,122,121,120,121,120,119,121,121,122,122,121,120,119,121,122,122,122,121,121,122,121,120,121,121,122,121,121,121,119,120,123,121,122,122,121,121,119,120,122,121,121,121,121,122,122,125,122,120,122,121,121,122,122,119,122,121,121,120,121,121,120,120,120,121,122,121,121,121,119,120,121,121,121,121,121,123,122,121,122,120,121,121,121,122,122,120,120,121,122,122,121,121,120,120,122,121,122,122,120,121,121,119,120,121,122,121,121,122,120
121,122,120,121,121,121,121,123,120,121,121,122,121,121,119,117,119,121,121,122,121,122,121,120,122,122,121,121,121,121,122,122,120,120,120,122,121,121,120,118,121,122,121,121,121,121,123,126,121,121,121,122,122,121,119,118,118,121,121,121,120,121,121,120,120,119,120,121,121,121,122,121,121,122,122,122,121,121,121,121,121,123,121,121,121,121,121,121,121,121,121,121,120,121,122,120,121,122,121,122,121,120,120,120,121,120,120,121,121,121,122,120,121,123,122,121,121,122,122,121,121,122,121,122,121,121,122,120
121,122,120,121,121,121,122,121,121,122,122,122,121,120,122,122,119,122,120,122,122,122,121,120,119,122,121,121,121,120,121,119,121,121,121,122,121,120,120,120,119,121,120,122,121,122,124,121,121,122,120,122,122,121,120,120,120,122,120,121,121,121,121,120,121,121,122,122,121,120,121,120,122,122,121,121,121,121,122,121,119,122,121,122,121,121,120,119,121,121,121,123,121,122,122,122,121,123,120,121,121,121,121,120,121,120,120,121,121,121,121,121,121,122,120,121,121,121,123,122,121,122,121,122,122,122,119,118
124,120,122,122,122,120,121,120,120,121,121,121,121,121,123,120,121,124,121,122,122,121,120,123,120,121,120,121,121,121,122,121,121,121,120,122,121,121,121,120,120,122,121,122,122,121,120,119,121,122,121,122,121,121,120,120,119,119,121,122,122,121,120,120,121,122,120,121,121,121,121,121,120,120,121,121,121,121,120,121,120,122,121,122,121,120,120,118,121,123,121,121,121,121,124,126,120,122,121,122,122,121,120,116,121,120,120,122,122,122,121,120,119,120,121,122,121,121,121,119,121,122,121,122,122,120,121,121
120,121,121,122,122,122,122,120,120,122,122,122,121,121,121,121,120,119,121,122,121,121,121,119,122,123,120,121,121,121,120,121,119,121,121,121,121,121,122,122,122,121,121,122,121,122,122,120,121,123,121,122,121,120,122,124,121,122,121,122,122,121,120,120,121,121,121,121,120,120,121,119,121,121,122,123,122,121,121,120,121,123,121,122,122,121,121,120,121,121,122,122,121,121,121,121,121,121,122,122,121,121,121,119,121,121,121,121,121,121,121,121,119,122,121,122,121,120,120,119,121,122,121,121,121,121,121,121
121,121,120,121,121,121,122,120,121,121,120,121,121,121,122,121,120,121,121,122,122,121,123,120,124,122,121,122,122,120,119,117,121,122,121,121,121,121,121,122,119,121,121,122,121,121,121,120,121,122,122,123,121,121,122,121,119,122,121,122,121,121,121,118,121,121,121,122,121,121,121,121,119,121,121,122,121,121,122,120,121,123,122,123,121,121,122,120,121,122,122,122,120,121,121,120,120,121,120,121,121,121,121,120,120,122,121,122,121,120,120,120,121,122,120,121,121,121,121,121,119,122,121,121,121,121,122,120
119,121,120,122,121,121,121,120,121,120,121,122,122,121,120,119,120,121,120,121,121,121,122,120,120,122,120,121,120,120,114,112,121,123,120,121,121,121,123,123,120,122,121,122,122,121,121,118,121,122,121,123,121,120,120,118,121,122,122,122,122,122,122,119,121,121,122,122,121,120,122,124,121,120,121,122,120,120,121,118,118,120,120,121,121,121,122,120,122,123,122,123,121,121,122,121,121,122,120,121,121,121,121,121,121,121,121,122,121,120,120,120,120,122,121,122,121,121,122,123,122,122,120,121,120,121,121,120
120,122,121,121,120,121,121,120,120,121,120,121,121,121,121,120,121,121,122,122,120,120,121,120,121,122,120,121,121,122,122,120,121,122,121,121,120,121,121,121,121,121,121,121,121,121,123,122,119,120,120,121,121,121,118,115,120,121,121,122,121,120,121,121,121,122,121,122,122,121,120,120,120,120,121,122,121,121,122,119,119,122,121,121,120,121,121,119,119,121,121,122,121,120,120,120,120,122,121,122,121,121,121,119,119,119,120,121,121,121,119,120,120,121,121,122,122,121,123,120,120,123,121,121,120,121,121,119
120,120,121,122,121,121,122,127,122,121,121,122,122,122,121,119,121,124,121,121,120,120,121,120,119,120,121,122,121,121,122,118,119,120,121,122,121,121,120,120,122,121,120,121,121,121,122,121,120,121,121,122,121,121,122,120,121,121,121,121,120,121,121,122,121,122,121,121,120,121,121,120,121,121,121,122,122,121,122,120,119,121,121,122,121,121,122,120,120,123,121,121,120,121,122,120,123,121,122,122,122,121,121,123,119,121,121,122,121,120,120,119,119,123,122,122,121,121,122,119,121,122,121,122,121,120,121,124
122,121,120,121,121,121,121,120,118,119,121,122,121,121,120,120,121,123,122,122,122,121,122,118,121,122,121,121,121,121,121,127,120,120,120,121,121,121,122,122,120,122,121,121,121,121,121,119,119,121,120,122,121,121,124,122,121,122,121,121,121,121,120,119,120,121,121,121,121,121,121,116,120,122,121,122,121,120,119,120,123,122,121,121,121,121,121,123,119,121,121,122,121,121,121,120,120,120,120,121,121,121,121,121,121,121,121,122,121,122,121,120,121,122,120,121,121,122,124,122,121,124,122,122,121,121,121,119
119,120,121,122,121,121,121,121,120,121,121,122,121,121,120,117,120,121,121,122,122,121,121,121,121,122,122,122,121,121,124,122,119,121,121,122,121,121,119,117,120,120,121,122,121,121,121,120,120,121,121,122,121,121,122,121,121,122,120,121,121,120,122,121,120,122,122,122,121,121,120,118,121,122,120,122,121,121,120,119,118,122,121,122,122,121,122,120,122,121,121,122,121,121,120,118,120,121,122,122,122,121,122,121,120,122,121,122,122,121,118,119,120,122,120,121,121,121,120,118,121,121,121,122,121,120,121,121
120,121,121,122,121,121,121,119,121,122,121,121,120,121,121,121,121,120,121,121,121,121,124,124,121,123,120,122,121,121,122,120,119,121,121,121,121,121,122,120,120,121,121,122,121,121,121,120,121,122,121,121,120,120,121,122,120,121,120,121,121,121,121,120,121,121,121,121,120,121,121,118,119,120,121,122,121,121,122,123,120,122,120,122,121,121,122,121,122,123,121,122,121,121,121,124,120,121,121,121,120,120,121,119,121,121,121,121,121,121,122,121,120,122,121,122,122,121,120,120,120,122,120,121,120,121,122,121
121,121,120,122,121,121,121,119,120,121,121,121,121,121,123,122,121,124,120,122,121,121,119,117,120,122,121,121,120,120,122,122,121,120,120,121,121,121,122,120,121,121,121,121,120,121,121,120,119,122,121,121,121,121,121,121,121,121,120,122,121,121,122,120,121,121,121,122,121,120,121,123,121,122,121,122,120,121,120,118,121,121,120,121,121,121,121,122,120,122,121,121,121,121,121,119,121,121,121,121,121,121,121,122,121,121,122,121,120,121,122,120,120,123,121,123,121,121,121,120,122,121,121,122,122,121,121,119
119,119,120,121,121,121,123,120,118,123,120,121,120,121,119,121,123,122,122,122,121,120,121,121,121,123,121,122,121,121,121,119,118,121,121,122,121,120,120,119,120,121,121,121,121,121,122,118,121,122,121,122,121,121,121,121,120,122,122,122,120,120,121,119,121,121,121,121,120,120,121,120,121,121,120,121,120,121,121,120,121,123,121,121,121,121,121,120,120,123,121,122,121,121,121,123,121,122,120,122,121,121,122,120,120,121,121,122,121,122,119,116,121,122,121,122,121,122,122,120,122,123,121,122,121,121,122,121
121,121,120,121,121,121,121,120,121,120,120,121,120,121,122,120,121,123,121,121,121,121,124,126,121,123,122,122,121,121,123,121,121,122,121,122,120,120,121,120,120,121,121,121,121,121,122,122,120,122,122,122,120,120,121,120,123,121,122,121,120,120,121,120,120,123,121,122,122,122,122,121,120,120,122,122,121,121,121,122,121,123,121,121,120,121,121,121,121,122,120,121,121,121,122,121,121,120,122,122,121,121,121,121,120,123,121,122,121,120,120,120,121,123,121,122,121,121,121,121,120,122,121,122,121,121,122,120
122,121,121,121,121,121,121,121,121,120,120,122,121,121,125,122,120,121,121,122,121,121,119,118,122,122,121,122,121,120,122,127,120,122,120,121,121,121,121,119,120,122,121,122,121,120,121,122,120,122,122,122,121,121,121,120,121,121,122,122,121,120,121,120,119,120,120,121,121,121,121,119,121,122,121,122,121,121,123,121,121,121,120,122,121,121,122,120,119,121,120,121,121,122,121,119,121,121,121,122,121,121,122,124,121,122,122,123,122,121,121,119,120,120,121,122,121,121,120,120,121,121,121,122,121,120,121,120
120,122,121,122,122,121,120,120,121,122,121,121,120,121,122,120,120,121,121,122,121,120,121,122,120,120,121,122,121,122,122,120,120,122,121,122,121,120,121,121,120,120,121,122,122,121,121,120,120,122,121,121,121,121,121,120,120,122,120,121,121,121,121,121,121,121,121,122,121,121,122,119,121,121,121,122,122,121,121,118,120,121,121,122,122,122,122,127,120,122,121,122,121,121,121,123,121,122,121,121,120,121,121,120,121,121,122,121,120,120,121,121,120,123,121,122,122,121,121,115,119,120,121,122,121,121,122,126
124,121,121,121,121,121,122,121,120,120,120,121,121,121,121,121,120,123,121,122,120,121,119,119,120,120,120,121,121,121,122,122,121,121,121,122,121,120,121,120,122,123,121,121,121,121,123,122,121,122,121,121,121,121,121,121,120,122,121,121,121,121,121,119,120,121,121,122,121,121,121,119,120,121,121,122,121,120,121,120,121,121,122,122,121,120,121,121,121,122,121,122,122,121,122,119,120,123,121,122,120,121,121,120,121,121,121,122,121,120,120,119,121,122,120,121,121,121,121,120,121,122,122,121,122,121,122,120
120,122,121,122,121,121,121,119,121,119,121,122,120,121,121,120,119,123,121,122,121,120,119,117,122,122,121,122,121,121,121,120,120,123,121,121,120,121,121,118,121,121,120,121,121,121,121,120,121,123,121,121,121,121,121,121,121,121,120,121,121,121,122,121,119,121,121,122,122,122,118,116,123,121,121,122,122,121,121,120,120,122,120,122,121,121,122,121,120,121,121,122,121,121,121,121,121,121,121,122,121,121,121,121,120,121,121,122,121,121,122,120,120,122,121,121,121,122,122,121,121,123,122,122,122,121,121,118
120,120,122,122,120,121,121,121,120,121,120,121,121,121,120,121,122,123,121,122,121,121,122,120,118,122,121,122,121,121,121,120,121,122,121,122,120,121,121,120,120,122,122,122,121,121,122,121,120,121,121,121,120,120,121,121,120,121,120,122,121,121,121,121,120,121,121,122,121,121,121,118,121,121,121,122,122,121,123,121,121,122,120,121,121,121,123,122,121,121,121,122,121,121,123,120,120,120,121,122,121,120,121,121,120,121,122,123,121,121,121,120,122,121,121,121,120,121,121,121,120,121,121,122,121,121,122,120
120,122,121,122,122,121,121,119,123,121,121,121,121,121,122,121,120,121,120,121,122,122,121,120,121,120,120,121,121,121,122,122,121,122,121,122,121,120,120,118,119,121,121,121,120,121,121,119,121,123,121,122,120,121,121,121,121,123,121,122,122,121,122,120,120,120,121,121,120,121,121,121,120,121,121,122,121,122,122,119,121,122,121,122,121,121,121,121,121,122,121,122,121,121,121,120,120,121,121,121,120,121,125,122,120,121,121,122,121,121,118,117,120,123,121,122,122,121,123,122,123,122,120,122,121,121,122,123
120,120,120,121,121,121,121,121,121,122,121,122,121,121,121,120,120,121,121,122,122,121,120,120,118,121,120,121,120,120,121,119,121,122,121,122,121,121,123,131,119,120,121,122,121,121,120,119,121,123,120,121,121,121,121,121,121,123,122,122,121,121,121,120,121,122,120,121,121,121,121,120,121,122,121,121,120,120,121,120,121,121,121,121,121,121,121,122,121,123,122,122,122,122,121,119,121,121,120,121,121,120,121,121,121,121,121,122,121,121,121,121,120,122,120,122,121,121,122,120,121,120,120,121,121,121,121,121
120,121,121,122,121,121,122,120,121,122,121,121,121,122,122,122,120,121,121,122,122,120,120,120,120,121,121,121,120,121,121,120,120,120,120,121,121,121,122,122,121,121,121,121,120,121,122,121,120,123,121,122,121,121,121,122,120,122,120,121,121,121,120,118,120,121,121,122,122,122,122,121,120,120,121,122,122,121,121,123,123,121,121,121,121,121,122,121,119,122,121,122,122,121,119,113,121,122,121,122,122,121,121,120,120,120,120,121,121,121,121,120,121,122,121,121,121,121,121,121,119,120,121,121,121,121,121,120
121,121,121,122,121,120,125,122,121,123,121,121,121,121,116,115,120,121,121,122,120,120,122,123,121,123,121,121,121,121,120,117,120,122,121,122,121,121,121,122,121,121,121,122,121,122,122,121,118,121,121,121,121,122,122,119,121,122,122,122,120,120,121,119,121,122,121,121,121,121,123,128,121,121,121,122,121,122,122,120,121,122,122,122,120,121,120,114,120,123,121,121,120,120,123,121,120,121,121,121,121,121,122,122,121,121,122,122,122,121,120,118,120,120,121,122,121,121,121,121,122,123,121,121,121,121,122,121
120,119,120,122,121,121,121,120,120,122,122,122,120,121,122,122,121,121,121,122,122,121,121,120,120,122,120,121,121,121,121,120,121,122,121,122,120,120,121,120,121,121,122,121,121,121,121,120,121,122,121,121,121,122,121,119,119,121,121,122,121,121,121,124,121,122,121,122,121,121,120,120,120,119,120,121,121,121,122,120,122,123,121,122,122,121,122,121,120,122,121,122,121,120,120,120,125,121,121,121,121,121,122,121,116,120,121,122,121,121,120,118,120,123,121,122,122,121,121,122,120,120,120,121,121,121,122,120
120,120,121,122,121,121,121,120,121,121,121,121,120,121,121,120,121,122,121,121,121,121,121,122,120,121,121,122,121,121,122,120,122,121,120,122,121,122,121,120,120,121,121,121,120,120,121,120,120,122,121,122,121,120,119,120,122,123,121,122,122,122,122,119,120,120,120,121,121,121,121,119,121,121,121,122,121,120,120,119,121,121,121,122,121,122,122,119,119,121,122,122,122,121,121,122,120,122,121,121,121,121,121,120,120,121,121,122,121,121,122,119,121,122,121,121,120,121,118,117,119,121,120,121,121,121,122,121
121,120,120,121,121,121,122,122,121,122,121,122,121,121,121,118,120,121,120,121,121,121,121,121,123,120,121,121,121,121,121,119,119,119,120,122,121,121,122,119,121,120,121,121,121,121,121,120,120,122,121,122,121,121,117,116,120,123,121,122,122,122,121,116,119,120,122,121,121,121,122,122,121,121,120,121,121,121,122,122,121,121,121,121,120,121,122,120,121,120,120,121,121,121,119,119,121,122,121,122,122,122,122,120,120,121,120,121,121,121,121,120,121,123,121,122,121,120,121,122,121,124,122,121,120,121,122,121
120,120,120,121,121,121,122,120,121,122,121,122,120,121,122,121,121,121,121,122,121,121,121,119,120,121,122,122,121,120,120,119,120,121,121,122,122,121,121,120,122,122,122,122,121,121,121,120,120,121,121,122,120,120,121,119,121,122,121,121,120,121,121,120,118,120,121,122,121,121,120,119,122,122,121,122,122,122,121,118,120,121,120,121,121,121,121,121,121,122,122,123,121,120,121,119,120,122,121,122,122,121,121,119,119,120,121,121,120,120,121,120,121,122,121,122,122,121,121,120,121,123,121,121,120,121,123,122
121,121,120,121,121,121,118,117,123,121,121,121,121,121,120,120,120,123,121,122,122,121,122,120,119,121,121,121,121,121,122,121,121,121,121,122,121,120,120,121,121,122,121,121,120,121,120,116,121,122,122,123,122,122,123,126,121,122,120,121,121,121,122,125,121,119,119,121,121,121,121,119,120,121,121,122,122,122,118,115,120,121,120,122,121,121,122,125,122,122,121,122,121,121,121,119,124,122,121,122,121,121,121,117,120,121,120,122,121,122,122,121,120,123,120,121,120,121,122,120,119,121,121,122,122,121,120,119
120,121,121,122,121,121,122,120,121,122,121,121,120,121,121,121,119,122,121,122,121,121,121,118,120,122,121,122,122,121,121,121,121,119,120,121,121,121,121,119,120,121,121,121,120,121,120,120,121,121,120,121,121,121,121,120,120,124,122,122,121,121,122,121,122,122,121,122,121,121,121,120,119,119,120,121,121,121,122,121,121,123,122,122,121,121,119,120,120,122,121,121,120,120,123,121,120,120,120,121,121,121,122,120,119,121,120,122,121,121,122,119,120,121,121,122,122,121,121,120,117,121,121,122,121,121,122,117
127,122,122,122,121,121,122,123,123,121,121,122,121,121,119,116,118,122,121,122,122,121,121,120,119,123,121,122,121,120,121,119,119,121,121,120,120,119,120,119,124,120,122,121,121,123,120,124,122,121,121,122,121,121,126,123,122,122,120,121,121,121,120,120,121,122,121,122,121,122,122,119,118,120,121,122,122,120,120,115,126,122,121,121,121,128,122,124,119,121,120,121,121,120,120,119,124,123,121,121,120,119,121,119,117,120,122,122,121,126,128,125,124,120,120,122,122,116,120,125,120,121,119,120,121,123,119,118
119,123,122,122,121,122,122,117,121,123,121,122,121,120,124,122,122,122,121,122,122,118,119,119,119,118,119,120,119,119,118,120,120,123,122,123,121,109,122,116,123,120,120,122,123,136,121,125,119,122,121,121,120,126,126,120,126,123,123,125,121,108,122,122,114,122,122,120,122,113,123,119,122,119,120,122,122,121,115,114,121,123,121,123,120,101,123,119,123,120,120,119,116,107,116,116,124,126,123,123,120,123,130,121,114,120,120,118,121,115,104,111,123,119,117,113,114,95,114,118,118,124,122,133,120,108,128,121
116,121,121,120,120,102,122,110,119,124,121,114,110,67,93,119,108,119,117,131,124,134,145,119,138,118,120,120,128,186,122,119,110,128,120,92,113,92,116,118,97,113,122,155,122,56,100,115,125,126,119,115,126,177,146,127,124,121,125,130,138,133,147,131,107,138,124,100,115,86,109,118,145,98,114,138,127,110,121,119,141,135,126,148,117,110,140,116,109,114,119,114,117,164,120,132,108,123,119,117,136,112,109,110,121,121,118,84,98,138,120,118,126,126,122,128,130,154,144,125,108,117,113,84,87,104,104,124
170,132,132,173,145,125,136,127,105,113,121,98,119,112,106,106,130,115,116,124,115,100,116,133,105,113,119,99,104,135,118,121,93,132,123,130,159,112,146,117,141,128,120,123,108,116,134,116,134,138,123,110,113,129,101,120,110,118,121,116,123,129,144,125,119,127,124,123,116,113,98,112,114,114,116,114,112,99,114,123,122,124,120,123,133,160,113,113,120,120,119,113,123,119,105,124,122,125,126,135,117,154,155,125,119,121,121,121,123,101,91,113,110,120,118,106,105,123,117,115,136,118,122,144,139,123,138,127
126,121,121,105,105,139,98,121,122,132,126,143,160,142,157,127,118,120,119,108,113,122,136,117,124,120,121,120,105,70,94,119,125,122,123,125,143,152,134,124,117,118,119,118,117,121,120,122,118,119,118,109,118,112,98,117,122,122,122,132,117,138,152,123,99,125,119,109,124,105,105,116,159,107,123,145,137,170,135,131,100,122,123,104,117,136,129,123,121,119,112,104,93,75,86,119,122,124,122,118,141,141,101,125,121,126,124,109,127,133,116,123,125,120,119,101,80,193,90,113,122,132,133,165,170,95,146,124
120,122,118,108,97,102,142,120,140,111,117,124,144,138,72,116,111,123,120,111,121,130,121,123,146,123,125,124,107,111,111,121,112,123,121,122,117,89,87,118,115,121,121,121,120,117,131,121,119,120,118,118,118,134,96,116,116,118,122,105,125,90,116,118,129,122,112,115,121,151,110,119,92,126,119,101,109,146,120,111,138,103,124,135,137,97,148,138,123,123,122,121,117,155,120,118,117,125,121,121,124,129,101,121,115,120,121,119,114,105,115,119,120,121,114,117,118,120,75,119,116,125,128,127,122,76,145,130
129,117,118,120,120,121,121,118,117,123,120,111,119,96,99,122,120,126,124,166,130,144,150,118,119,123,119,111,116,129,119,122,121,122,118,115,124,56,106,111,144,118,132,136,149,186,194,133,129,119,117,112,115,101,119,116,114,123,122,137,115,104,100,111,120,131,123,99,117,81,125,124,100,106,114,121,109,113,117,117,124,128,124,121,127,103,140,130,116,120,115,125,122,80,122,110,93,118,130,132,137,152,96,122,129,121,122,111,110,108,119,128,122,122,116,120,117,109,109,127,104,122,119,120,116,107,110,110
114,121,122,128,127,107,162,120,124,111,120,113,119,112,151,124,100,129,120,108,113,109,93,112,131,115,120,163,151,187,167,125,123,118,126,157,154,139,97,123,101,139,127,125,115,70,123,115,128,111,118,93,103,123,129,125,111,121,118,122,124,114,122,118,116,121,119,118,119,132,124,110,124,124,124,124,125,113,104,131,116,121,117,103,114,104,106,117,123,115,118,97,94,59,101,123,112,131,127,147,151,206,114,124,125,114,119,110,112,74,124,125,121,121,116,133,132,118,118,115,122,133,130,129,113,138,146,121
115,127,120,121,115,112,117,113,115,99,108,115,119,109,97,115,149,119,126,124,147,138,144,123,113,123,120,107,113,103,92,110,113,125,117,113,127,152,126,124,126,124,126,125,128,120,115,124,116,119,120,119,121,117,104,120,115,123,115,123,138,170,93,115,128,121,119,111,117,110,116,116,131,120,122,133,128,191,126,115,122,121,120,90,122,170,149,124,116,120,117,141,135,177,150,118,72,130,126,116,125,131,23,110,157,103,116,114,128,179,147,129,104,122,117,65,66,116,132,119,118,125,126,179,172,126,84,115
125,132,128,128,141,120,148,134,114,128,120,141,111,102,144,114,127,110,118,118,127,160,118,134,87,120,122,89,121,131,143,114,140,126,130,173,126,127,185,134,111,122,119,109,112,86,115,114,107,118,112,100,75,49,102,110,155,117,126,153,174,175,147,136,123,123,119,111,109,114,117,119,123,124,121,114,128,116,102,120,121,125,123,149,132,99,109,116,117,113,117,127,128,99,124,134,136,126,119,113,113,139,109,107,103,113,121,118,117,69,123,129,130,128,126,133,128,138,145,122,119,115,117,97,104,145,133,109
79,133,124,113,119,168,117,122,158,112,122,122,130,78,144,128,96,127,125,119,112,99,97,113,128,122,114,121,122,118,108,121,120,122,116,118,129,99,96,112,103,107,119,120,121,110,148,123,130,129,124,129,114,102,184,122,126,128,125,125,125,122,97,130,103,122,118,114,101,100,106,113,96,114,121,124,118,135,152,123,145,111,114,119,122,70,124,118,117,128,124,110,126,105,79,118,108,127,124,105,108,116,140,135,128,119,119,116,137,121,89,117,124,122,113,110,111,68,121,115,118,112,117,121,119,90,127,128
101,132,126,141,149,158,135,114,147,114,126,120,120,99,156,125,130,128,114,117,111,115,125,117,112,122,126,122,129,116,110,117,124,120,121,119,113,109,118,117,138,128,122,118,118,125,107,120,81,103,115,94,101,127,159,124,158,126,129,131,137,92,153,133,111,124,119,117,118,112,105,114,130,125,122,128,119,117,117,116,126,120,119,114,123,136,114,127,98,131,121,132,111,185,128,115,104,116,126,127,129,161,131,128,124,123,124,146,152,112,129,117,115,119,121,120,113,105,114,123,140,123,125,131,121,104,82,117
104,114,114,116,117,115,121,122,113,125,120,110,129,147,76,115,141,127,128,110,101,107,156,126,105,120,119,120,123,113,137,116,134,117,119,102,108,124,106,120,119,125,124,137,127,80,128,123,121,124,121,134,119,178,109,122,119,122,120,116,121,109,109,117,123,122,117,114,115,127,155,113,117,113,122,126,129,129,130,125,124,129,124,124,118,115,62,122,121,121,122,125,116,134,159,126,127,122,120,123,125,118,124,124,119,121,119,127,120,94,110,117,103,119,113,113,113,176,85,105,149,111,128,135,143,133,143,137
136,120,117,118,116,108,99,121,113,123,118,115,118,118,91,115,118,123,119,112,119,110,104,115,124,124,126,130,131,121,150,125,125,123,123,124,124,125,149,120,119,122,117,114,116,122,118,124,127,123,117,113,119,118,126,119,123,124,121,134,124,87,113,116,97,116,123,128,116,118,113,120,115,121,122,126,121,159,141,125,136,126,122,117,121,95,116,121,125,125,122,116,124,121,104,118,122,120,122,110,113,104,111,117,103,124,118,119,113,106,98,116,129,118,125,139,135,65,166,132,120,122,119,117,116,118,122,119
116,119,118,118,119,116,105,118,117,119,121,110,112,109,127,125,131,123,120,115,118,114,106,116,138,128,125,129,121,130,128,122,112,119,120,119,120,123,125,123,118,121,120,122,118,116,116,116,120,124,121,119,122,123,151,122,118,121,122,98,118,171,118,119,114,126,121,141,122,114,134,120,129,119,123,122,142,175,135,128,122,126,120,120,125,115,111,115,115,118,126,168,128,87,122,131,117,123,122,120,122,129,113,120,128,119,111,96,95,58,120,109,122,124,128,140,135,168,167,127,136,120,121,116,115,107,113,114
125,132,122,118,118,112,86,108,131,113,123,137,123,116,134,124,127,124,123,121,140,137,151,118,127,123,120,119,113,115,109,127,123,122,119,123,122,126,112,116,122,126,122,138,129,115,144,121,132,111,119,126,117,157,128,123,117,123,122,117,114,119,102,121,116,123,124,126,122,115,100,127,129,118,119,121,125,116,117,118,124,123,120,111,121,160,116,119,124,123,124,118,111,134,104,121,116,122,121,118,123,111,122,118,133,119,120,119,124,122,129,120,111,122,123,118,117,125,116,118,129,125,120,118,123,181,132,123
119,117,119,125,120,131,120,119,119,120,121,131,130,115,108,120,122,125,122,118,120,131,120,119,121,121,122,124,126,131,148,131,125,121,122,123,118,106,93,117,119,121,115,116,112,96,131,125,118,129,122,121,120,108,122,112,141,106,119,119,115,109,91,134,118,127,120,115,117,141,149,117,116,126,124,129,117,129,122,119,127,123,120,121,123,117,137,119,127,126,126,126,119,111,129,126,119,119,118,116,119,117,116,117,119,123,123,120,116,141,112,115,130,125,120,121,127,124,144,122,122,116,130,124,119,120,117,127
120,122,100,121,120,115,111,122,121,126,129,118,117,109,127,128,119,122,122,105,116,125,105,118,97,121,123,157,135,109,137,119,133,115,119,114,118,123,109,120,129,129,121,117,121,129,72,121,129,124,124,127,132,149,149,121,115,124,121,128,125,72,115,122,122,113,118,109,113,101,108,116,130,126,124,129,111,106,113,125,115,123,121,120,120,123,113,108,105,126,121,118,108,92,104,129,121,117,122,125,128,135,155,130,125,122,121,123,120,116,126,118,119,122,120,115,117,99,105,118,124,124,121,129,120,121,127,119
126,121,119,95,109,118,111,118,114,116,125,164,138,71,136,122,120,124,122,119,121,124,149,120,113,123,117,113,116,111,105,118,132,124,121,115,133,128,115,125,143,116,123,132,116,105,142,130,110,119,120,121,120,124,118,117,119,121,120,119,120,107,113,120,126,123,119,112,115,132,116,120,118,122,123,132,127,143,108,131,114,117,120,109,105,110,121,115,116,124,121,121,121,118,116,121,125,120,120,127,123,109,119,119,129,121,121,122,115,90,123,122,123,122,121,123,117,113,180,123,116,125,121,112,116,136,109,116
119,119,117,106,106,108,145,122,118,127,126,120,122,97,116,120,112,119,120,116,112,111,126,122,114,117,115,121,113,136,93,121,142,131,129,141,138,149,149,130,123,128,126,123,122,108,142,124,137,114,119,119,119,115,106,120,117,123,116,114,117,66,84,115,125,123,123,148,134,165,160,121,131,123,120,118,120,108,117,120,123,121,114,91,105,113,102,120,104,108,122,163,152,165,104,127,112,124,122,119,120,124,152,117,127,122,120,119,116,131,183,118,108,119,120,125,119,117,97,119,129,121,122,120,126,137,132,131
107,119,121,124,110,105,114,110,114,116,118,119,120,121,107,121,122,127,121,113,119,102,140,118,114,120,123,120,126,181,154,131,123,124,123,129,116,108,129,120,129,118,118,118,120,114,108,116,114,121,117,102,114,91,101,116,125,115,120,132,131,146,138,119,125,122,122,116,117,123,114,118,115,124,119,114,110,125,148,117,130,118,123,130,137,119,117,126,126,121,119,117,121,112,124,118,121,121,121,124,110,110,91,119,118,122,123,123,132,164,141,126,124,125,124,113,120,124,95,122,122,124,117,121,132,98,150,119
122,120,121,118,115,143,114,117,120,124,123,125,124,126,115,117,111,118,122,120,117,110,113,120,126,118,116,124,130,113,141,124,134,122,121,120,117,107,104,119,131,115,120,116,118,113,122,118,115,121,120,130,126,127,148,124,121,125,121,112,117,100,120,113,133,123,122,128,127,132,101,123,113,117,119,116,119,114,127,118,110,121,119,118,114,122,131,120,136,123,121,102,132,138,102,121,131,129,128,203,154,161,171,121,108,112,115,110,112,112,114,123,133,121,121,115,112,110,119,126,125,122,121,109,120,115,110,119
124,121,123,133,123,93,125,117,112,126,122,117,109,133,121,120,137,116,114,129,141,123,108,127,119,123,122,123,112,143,132,128,134,123,121,123,122,83,114,117,125,117,119,102,113,104,133,117,116,120,120,126,120,146,123,118,117,121,120,119,122,115,115,123,125,127,123,140,118,104,145,119,127,120,124,128,133,126,157,126,123,120,120,114,109,118,98,115,115,120,118,116,116,107,122,119,116,123,121,123,123,127,92,119,124,119,116,122,121,126,145,120,125,124,123,132,119,118,117,123,118,126,120,126,110,86,94,115
121,115,119,124,119,122,119,119,115,121,120,122,120,120,115,121,103,128,118,95,109,117,107,109,143,114,123,153,131,105,81,128,113,125,124,108,116,121,138,121,116,122,117,122,113,139,133,119,124,126,125,137,139,130,160,122,131,115,122,115,109,124,111,121,118,122,121,116,114,104,111,115,120,123,121,121,123,132,124,125,122,121,120,122,118,96,113,123,129,123,122,123,128,167,116,126,122,125,121,122,116,116,117,118,107,114,119,115,122,109,104,119,130,118,119,127,120,101,131,120,105,130,126,137,133,133,141,122
109,106,118,120,122,128,123,124,111,124,120,128,130,126,112,117,129,124,121,126,123,118,144,116,121,123,123,119,120,120,136,122,118,119,123,122,119,120,112,120,120,123,113,121,126,102,118,124,107,120,122,123,123,137,118,117,122,121,122,120,114,85,114,120,119,122,121,127,130,145,161,121,128,123,124,125,120,114,83,118,117,122,125,113,117,154,102,117,122,126,121,130,126,113,98,123,126,123,122,116,122,143,146,124,128,122,121,119,122,120,142,116,106,114,118,119,113,100,109,123,117,123,122,111,119,126,99,120
114,127,120,125,124,113,110,117,127,113,118,114,115,114,128,123,109,125,123,124,123,105,104,119,132,123,120,124,119,135,144,119,118,122,120,127,119,120,120,116,119,122,124,111,122,132,124,117,117,112,122,135,114,90,116,130,112,129,123,120,117,151,117,110,129,117,120,105,109,118,110,121,119,123,124,133,137,126,136,128,115,128,123,144,121,117,165,118,116,108,118,112,118,123,97,134,119,124,120,119,121,117,134,120,118,123,123,120,118,123,108,118,112,114,121,123,120,113,136,123,146,126,114,121,124,147,145,129
117,124,123,106,117,104,94,117,124,121,123,128,117,119,113,118,116,125,120,120,123,120,113,122,131,116,118,118,120,131,133,118,117,123,121,123,128,143,115,119,126,119,121,124,121,110,117,121,132,127,122,122,117,108,121,119,107,116,120,119,114,121,120,123,107,122,122,124,123,119,115,126,115,124,122,123,121,106,130,124,121,120,120,108,109,115,119,126,118,125,121,148,139,178,91,119,129,115,124,122,124,131,151,129,123,121,121,115,117,117,121,118,129,122,119,118,119,117,108,120,122,123,122,116,116,116,114,119
121,122,117,120,123,123,123,120,122,125,124,117,123,105,127,119,120,120,122,122,121,141,130,120,125,124,119,122,119,114,116,117,121,121,117,125,124,135,117,121,117,124,126,124,121,113,127,119,124,121,116,121,126,122,126,122,100,120,121,122,110,85,118,117,107,118,118,122,130,167,111,120,117,122,121,117,121,105,126,124,110,119,120,126,114,128,119,116,120,126,122,117,119,102,136,121,134,122,120,120,128,109,116,119,122,120,121,145,124,121,122,129,121,118,120,114,114,121,109,118,120,123,122,121,123,120,124,126
116,121,121,119,121,128,123,112,114,123,126,127,122,105,136,121,111,121,115,115,115,120,115,113,148,119,122,124,122,107,128,123,125,121,121,118,118,137,118,117,132,125,122,129,127,111,148,126,108,120,121,118,118,120,113,120,121,121,120,119,130,95,113,120,118,122,121,128,109,98,127,120,119,122,123,118,122,128,107,117,129,120,120,121,123,122,167,122,107,112,122,137,134,108,115,126,117,122,117,109,115,93,128,118,138,124,124,134,114,125,111,120,119,123,116,125,127,117,112,120,119,121,123,115,118,128,124,116
120,119,115,121,120,120,125,122,118,122,123,121,108,142,110,119,130,125,124,129,136,138,128,122,120,119,120,119,117,105,130,118,121,123,121,119,117,121,137,121,121,121,122,123,118,120,139,121,123,120,120,123,125,123,109,117,127,125,120,117,113,90,113,119,106,118,122,121,121,114,125,118,121,121,120,116,118,125,156,124,117,123,120,121,120,114,115,118,134,123,121,118,120,123,110,116,113,130,125,122,126,156,132,120,139,112,121,119,119,134,122,126,117,123,120,124,125,85,107,118,119,120,120,118,118,141,125,122
126,119,120,119,122,132,136,122,114,123,119,119,117,114,109,116,121,120,123,135,116,129,122,124,116,119,115,114,117,131,119,118,124,124,123,119,128,118,126,124,119,126,122,116,113,109,96,116,120,112,118,113,118,126,126,121,137,130,126,137,132,118,132,126,101,116,118,119,116,129,113,116,120,118,119,115,114,99,111,117,126,124,121,132,124,135,145,129,104,129,124,111,122,105,118,118,126,113,117,119,115,98,130,115,113,116,120,121,121,142,106,125,136,126,121,114,120,103,127,120,111,125,124,124,125,121,120,122
117,121,125,120,122,113,130,124,121,121,119,119,118,112,99,117,133,128,124,120,125,138,163,127,123,110,119,114,118,119,118,125,111,124,118,133,121,129,108,115,116,122,123,122,120,101,125,119,121,120,125,116,121,124,118,123,110,119,113,119,121,129,119,120,123,124,124,124,125,129,109,119,121,123,118,118,120,112,136,120,127,117,119,124,118,114,113,119,115,125,125,126,126,87,130,125,122,117,117,102,110,116,100,117,110,123,121,137,124,86,95,129,127,121,120,117,119,122,135,116,117,125,127,120,118,117,104,119
118,119,116,119,124,113,112,118,120,123,115,120,117,90,102,118,123,127,125,122,131,142,140,126,112,122,120,122,119,122,130,116,118,117,118,117,115,115,113,125,121,122,121,127,125,134,133,118,134,121,127,132,117,130,110,120,124,124,115,113,118,112,114,120,117,122,123,123,121,117,120,119,126,122,125,123,114,112,120,118,122,118,115,117,123,141,128,119,110,121,127,122,122,76,108,119,124,119,109,114,116,94,130,120,116,121,124,126,128,166,121,124,127,118,122,121,121,121,122,119,115,122,120,123,121,139,108,123
118,124,123,121,124,114,111,119,125,120,115,120,114,96,129,118,126,123,124,126,115,107,119,118,99,114,119,108,112,177,140,124,126,121,123,155,136,134,151,119,118,125,121,116,116,114,126,122,114,121,112,115,117,116,109,118,127,120,124,123,119,134,126,115,112,132,118,128,114,96,99,116,100,100,119,114,119,131,116,125,104,116,118,119,120,147,121,124,126,126,124,123,127,131,153,126,113,118,120,123,120,106,117,116,114,124,124,120,122,131,125,124,122,123,120,123,119,93,109,118,125,123,123,121,118,120,124,119
116,120,123,124,117,80,124,122,112,124,122,114,130,190,129,124,134,117,121,131,126,89,126,122,115,122,118,119,119,101,113,121,113,123,121,108,111,152,118,121,130,123,120,134,130,132,125,117,101,115,118,115,118,122,119,117,131,119,122,117,117,117,119,124,120,123,122,123,122,124,116,111,120,121,121,123,120,124,148,120,122,123,118,117,117,126,113,117,124,123,123,125,123,127,115,129,124,118,117,114,119,124,113,113,120,126,124,128,123,93,97,115,158,117,122,125,122,125,133,130,118,126,121,118,118,112,109,110
115,121,118,122,124,113,107,119,118,121,125,124,118,103,132,125,120,126,128,109,134,143,151,123,106,118,117,142,121,143,133,121,133,116,113,117,120,116,100,116,108,122,125,121,117,100,128,120,116,126,119,118,126,120,97,119,119,125,127,121,123,126,150,123,124,123,111,113,109,122,125,117,126,117,122,118,124,117,115,119,110,116,114,118,118,129,114,119,131,127,124,123,121,125,121,118,120,121,120,118,116,117,125,119,118,119,118,124,118,118,117,117,121,121,122,115,121,123,118,117,129,122,121,126,117,108,109,119
114,116,120,119,124,137,152,123,114,129,123,116,123,101,104,122,114,118,119,120,121,90,113,118,129,121,121,123,117,128,126,122,124,123,122,123,120,131,123,117,119,119,121,113,118,125,115,120,114,122,119,110,114,124,127,114,122,116,121,122,114,117,136,128,117,118,120,121,123,123,93,113,117,120,121,124,126,108,128,123,117,123,117,113,116,138,119,119,117,121,119,121,117,108,114,118,128,122,125,134,125,127,133,125,122,121,127,110,114,123,123,122,127,123,115,144,144,180,117,117,127,122,124,122,121,130,146,121
120,121,122,121,122,115,105,119,132,120,118,109,115,126,117,117,118,121,121,128,120,105,100,116,122,123,122,128,123,110,138,120,124,122,122,124,124,141,153,121,113,112,116,115,109,104,94,118,127,121,121,123,125,122,132,117,123,123,120,126,123,82,124,118,125,120,123,122,117,113,106,122,130,128,125,123,126,119,122,124,134,111,119,122,124,123,120,121,116,122,124,125,124,80,88,122,116,121,114,122,118,114,114,116,117,122,126,107,127,127,125,121,115,125,120,123,119,116,127,126,128,115,124,125,119,109,111,119
113,120,115,109,116,120,119,117,135,127,120,140,129,187,138,120,105,111,120,121,121,123,107,124,130,123,122,125,122,116,109,122,116,119,118,119,118,117,126,116,113,123,122,121,126,102,116,118,132,120,121,121,121,186,141,119,137,118,121,123,114,138,143,129,112,124,119,115,131,106,105,121,106,120,122,126,117,124,134,121,123,124,123,120,125,123,124,120,112,116,120,120,115,100,113,122,128,125,115,128,125,116,136,122,103,118,121,120,113,113,113,119,120,126,124,121,121,116,115,119,117,118,121,128,127,130,126,129
115,122,119,118,117,129,140,116,124,126,124,130,131,118,145,122,120,116,119,120,120,120,117,119,114,125,122,117,116,118,116,118,110,117,124,133,123,132,128,127,120,124,126,127,123,116,103,124,109,116,114,121,116,106,127,112,132,122,122,125,130,134,122,126,110,120,120,121,119,121,130,117,122,123,122,122,120,117,128,119,119,123,125,126,124,116,117,125,122,123,119,118,120,139,118,118,111,116,123,127,129,150,132,128,119,117,120,111,110,115,122,125,121,122,120,148,131,132,118,118,117,116,117,120,112,86,85,118
130,122,126,124,133,125,143,128,124,123,126,121,120,116,111,120,120,120,110,116,118,119,98,114,119,122,127,122,122,121,116,124,110,121,122,120,119,116,119,121,118,122,124,128,124,110,123,116,130,120,118,117,124,122,129,121,119,124,125,114,105,77,102,130,106,122,123,137,147,136,118,124,119,121,119,142,129,174,154,117,121,123,122,116,115,116,106,116,121,127,119,117,119,103,110,126,120,121,124,117,118,122,121,121,122,121,119,125,123,127,123,118,116,126,122,121,123,162,94,120,124,115,122,130,128,133,137,128
136,123,121,120,118,115,109,117,102,118,114,115,116,107,101,115,125,119,122,131,121,104,120,119,121,121,120,118,124,137,130,120,116,123,123,121,118,116,111,115,126,123,120,130,125,125,124,121,132,116,118,119,122,123,110,119,121,126,122,120,114,113,133,120,123,126,127,128,128,109,118,122,134,126,121,123,121,123,116,122,126,116,121,123,121,132,127,123,125,124,124,126,128,101,125,123,116,119,113,113,103,96,108,120,121,124,124,123,120,116,154,123,117,123,121,122,123,111,107,114,131,116,120,117,113,118,109,119
118,122,119,109,109,117,123,118,132,121,123,133,139,146,145,120,130,122,124,118,119,115,158,120,120,122,114,112,109,134,122,126,122,124,121,118,125,133,108,103,134,115,121,124,118,122,119,123,129,128,123,122,125,120,119,120,113,106,118,119,117,122,118,127,127,134,127,136,130,117,127,108,111,123,121,125,119,113,126,125,115,120,117,116,115,127,109,112,139,114,122,118,120,130,114,117,131,121,113,118,112,84,116,127,122,127,122,118,122,193,97,113,98,118,119,132,125,100,163,128,115,118,120,107,114,104,100,123
131,124,116,114,128,92,135,132,119,121,123,121,111,140,78,118,122,121,118,123,123,139,121,122,119,127,126,119,125,90,115,123,109,117,120,130,116,98,118,121,124,123,125,124,125,138,157,122,106,121,121,119,116,106,90,117,125,123,121,123,121,103,167,119,93,120,122,116,115,119,102,122,129,126,116,128,124,117,164,123,121,118,122,118,118,113,106,113,118,123,121,124,121,125,82,125,117,117,120,105,111,162,122,115,122,123,119,118,125,117,155,123,142,125,122,128,121,106,157,121,117,118,121,120,119,135,78,127
109,125,119,105,107,78,95,110,128,121,126,142,128,194,105,127,120,122,123,119,119,111,123,120,128,123,117,129,135,103,119,123,120,125,123,123,117,149,114,116,121,120,121,114,116,104,112,125,111,125,120,131,129,118,149,120,108,122,123,124,130,161,144,130,117,119,119,118,120,130,121,117,119,121,126,120,123,102,121,112,120,124,108,109,116,112,99,116,109,120,123,122,114,133,138,126,131,121,119,120,115,108,94,118,157,115,122,159,154,169,154,123,114,121,124,113,115,107,143,125,111,120,114,114,113,114,105,119
119,121,119,119,119,84,105,117,135,124,124,121,124,119,121,122,101,120,122,117,114,89,125,117,148,120,120,119,111,113,159,131,113,126,122,143,139,124,121,118,118,124,119,118,115,107,121,116,118,123,122,114,120,118,115,125,112,118,114,120,119,141,125,112,128,125,128,122,119,133,119,121,108,120,117,136,127,109,150,120,136,113,121,121,120,109,112,122,128,127,122,114,110,90,120,122,98,125,119,112,100,130,112,115,143,123,131,161,165,81,79,124,98,120,126,120,117,73,146,125,115,116,113,109,114,117,94,115
120,116,117,110,113,102,103,121,136,127,129,135,132,96,133,125,125,124,122,123,116,88,107,119,113,121,117,119,123,122,132,120,118,125,121,123,104,106,114,118,130,111,118,110,127,131,127,121,123,130,126,128,126,131,108,125,105,119,124,123,122,100,111,115,128,122,119,117,115,127,102,119,115,120,123,125,122,113,127,124,122,120,120,113,116,78,89,120,119,129,128,143,129,110,127,121,127,118,121,120,119,121,137,123,124,122,120,121,129,110,130,120,106,117,114,99,93,154,104,110,116,126,124,140,159,74,126,126
115,122,121,109,105,146,170,117,113,118,118,127,135,135,90,122,119,117,120,115,116,79,77,130,126,127,123,125,118,109,168,114,108,118,122,109,119,156,98,128,117,126,124,145,148,151,126,123,127,121,121,121,117,118,133,123,118,121,124,120,118,114,119,120,109,124,114,120,115,130,116,119,129,112,123,125,124,115,120,122,122,126,123,115,123,124,142,120,122,124,123,137,112,115,135,118,119,115,122,127,127,123,117,127,115,114,120,121,119,108,102,119,124,120,119,132,116,122,125,117,117,127,120,118,117,124,137,124
116,118,121,115,105,98,102,121,116,122,121,116,113,148,130,126,120,125,121,118,120,102,123,121,119,119,121,127,128,127,109,120,122,120,120,89,103,113,111,124,111,119,119,126,126,132,121,115,133,129,127,120,119,131,127,122,115,113,116,123,118,117,132,122,124,122,125,118,122,98,96,126,119,127,122,125,117,89,156,121,112,126,122,121,121,122,117,120,117,102,115,122,137,87,116,122,127,132,125,123,113,116,132,125,110,120,123,115,111,98,152,124,119,121,126,117,121,109,118,118,125,125,115,105,102,119,115,125
120,116,121,126,136,183,113,122,113,132,125,121,115,117,153,126,111,111,120,118,114,127,108,110,140,121,115,77,119,99,117,116,120,127,132,153,135,101,114,123,106,121,119,112,117,101,129,97,127,123,122,117,110,89,113,142,128,123,121,132,127,91,119,116,122,118,119,123,113,127,107,107,109,125,125,124,123,110,115,116,147,110,115,118,102,163,117,116,130,126,128,134,139,125,113,115,119,121,119,125,120,132,120,113,120,119,118,127,117,92,109,124,124,121,117,104,127,129,104,112,114,120,124,138,139,126,114,113
127,124,123,115,117,115,132,124,122,122,118,119,120,106,114,120,143,115,121,122,120,132,129,122,127,126,121,119,125,52,113,116,119,126,121,125,114,105,132,116,122,123,122,117,118,107,88,118,128,119,119,153,123,111,89,120,94,110,118,116,122,165,119,124,121,125,124,122,122,117,132,121,122,125,116,103,118,148,120,109,117,116,119,121,124,145,101,102,133,118,122,104,120,160,157,116,123,128,122,132,124,126,166,105,111,112,119,112,116,100,118,128,120,124,114,120,117,134,128,103,133,120,123,106,116,123,136,121
120,123,120,121,119,77,101,115,108,118,119,107,119,75,134,127,109,115,121,142,125,125,132,121,135,117,119,127,109,107,120,117,116,121,118,124,130,198,113,125,109,128,124,116,120,149,181,120,147,107,113,118,111,109,113,121,125,122,121,118,119,147,106,117,126,128,123,120,129,134,141,127,116,120,120,111,121,165,105,122,112,119,118,123,102,94,130,120,130,118,125,122,115,99,112,123,119,123,123,130,125,134,129,112,120,125,120,115,124,110,120,136,120,119,125,129,137,72,84,104,117,122,114,105,98,164,136,117
115,123,132,141,135,149,154,132,137,120,119,124,113,115,117,118,128,121,113,71,104,131,112,123,125,122,127,154,150,108,119,129,123,125,122,113,119,134,131,119,113,119,117,116,125,127,101,117,137,127,122,119,131,168,139,128,112,117,115,111,115,98,108,115,126,120,117,139,125,72,140,145,122,123,123,137,113,152,191,125,110,131,121,119,112,88,108,103,94,95,115,116,130,127,107,130,117,125,119,136,116,107,140,131,124,124,125,140,141,178,130,122,121,124,122,108,104,111,110,113,125,123,122,117,130,73,127,147
122,110,110,111,120,144,153,97,115,122,123,119,118,119,82,112,124,123,128,153,126,131,105,126,139,124,119,122,114,104,151,128,126,127,126,114,123,136,147,124,109,111,116,132,113,78,91,118,125,130,120,139,155,145,122,134,126,121,131,133,126,129,139,132,116,123,120,121,118,108,105,113,125,121,120,115,118,115,113,117,133,119,118,104,103,79,114,121,118,119,120,127,121,115,139,115,122,127,124,109,122,163,141,126,98,123,121,136,127,109,81,108,129,112,118,95,99,101,110,114,132,120,124,131,147,133,159,119
119,122,114,121,116,111,75,114,122,123,124,82,97,103,159,109,109,115,102,143,113,171,130,130,117,122,126,108,109,120,155,116,114,116,117,125,142,113,72,117,128,114,121,135,135,81,121,127,121,125,112,121,124,170,163,123,104,124,124,113,110,81,125,111,151,114,114,84,98,115,70,132,131,133,131,156,142,126,210,133,113,125,124,117,119,114,55,103,137,116,112,119,118,122,83,114,122,122,119,122,127,125,156,131,114,117,121,116,114,111,104,112,121,122,126,122,114,113,119,114,119,121,113,104,125,119,118,133
113,118,119,103,103,104,91,113,147,126,124,117,133,109,177,121,132,125,127,115,126,124,116,125,108,111,112,160,135,28,86,132,131,131,132,116,140,157,187,118,125,125,124,124,117,109,113,121,92,118,115,126,119,114,78,118,139,123,125,120,131,124,134,118,126,123,122,140,114,127,134,129,121,117,123,128,133,110,143,130,138,113,116,128,126,114,90,104,120,123,121,123,114,181,200,142,122,122,120,127,131,114,120,121,118,120,119,102,116,112,101,136,117,116,113,95,108,146,116,116,119,125,126,126,112,128,109,109
143,122,124,117,120,105,122,122,111,119,111,117,122,124,129,122,117,116,117,123,103,113,52,111,133,142,151,198,171,240,145,140,116,125,120,111,105,141,112,109,122,111,109,108,114,106,93,126,121,124,125,121,120,119,120,116,128,121,114,118,116,104,82,107,108,131,132,155,145,149,153,127,111,119,122,109,123,145,142,111,131,111,118,116,115,155,100,129,115,130,122,112,107,58,103,113,109,119,123,128,129,172,151,123,127,127,125,111,125,121,123,143,104,106,101,122,148,96,105,110,132,133,132,144,119,113,114,130
107,117,125,136,129,101,102,117,123,117,115,122,110,78,122,108,117,121,125,120,118,104,132,129,115,118,110,102,90,155,120,112,130,123,131,162,183,132,135,132,119,119,123,121,121,146,121,122,125,121,118,113,116,107,104,122,119,124,124,121,120,117,117,123,116,116,109,129,129,77,68,122,132,131,130,115,106,61,111,131,111,112,125,114,120,80,138,120,129,126,107,114,117,115,94,115,104,119,124,122,121,122,117,140,129,126,116,120,129,117,121,118,99,104,123,113,115,105,108,115,141,136,128,118,121,189,115,128
116,107,120,122,110,55,113,147,122,126,114,112,119,149,139,110,113,119,123,137,119,118,92,112,124,124,124,123,117,95,115,120,123,111,115,128,126,116,108,112,124,121,117,109,123,90,135,148,117,127,124,129,136,96,152,98,118,120,129,126,116,152,148,119,145,122,119,117,120,114,114,134,123,125,119,106,115,123,108,115,126,118,126,140,142,114,130,128,123,127,118,146,134,167,86,107,113,120,124,119,122,112,103,126,128,121,117,120,102,84,102,96,108,116,124,150,162,128,209,127,121,126,125,118,101,121,189,123
120,120,117,117,119,118,92,119,114,120,116,115,121,126,117,105,130,114,118,135,128,110,97,112,116,124,125,123,126,135,171,119,123,121,118,116,117,96,106,128,123,118,119,112,118,112,105,115,134,123,124,129,133,94,117,125,143,127,127,122,127,138,161,119,102,115,114,126,116,118,109,137,121,123,118,123,122,121,118,106,124,117,120,122,124,120,114,116,121,122,124,112,115,99,137,119,124,124,112,139,144,174,105,125,124,122,133,143,122,116,112,124,129,120,115,112,109,81,108,119,105,120,123,126,128,134,138,116
110,123,119,111,119,115,129,128,117,126,119,141,122,112,125,106,119,115,122,128,121,115,127,120,121,123,117,133,125,114,113,124,111,126,121,129,134,150,132,125,122,123,124,129,126,159,211,121,123,117,122,132,138,117,108,120,125,123,120,117,119,126,126,139,114,125,122,112,124,117,122,130,119,119,122,119,119,119,117,125,129,122,117,129,124,127,118,133,109,128,120,96,88,81,114,97,139,112,129,131,137,127,228,135,136,121,120,126,118,104,91,114,119,121,102,96,114,110,101,114,118,121,121,139,128,113,114,123
120,120,127,121,118,141,117,110,144,125,115,120,111,123,148,139,121,122,123,135,124,109,103,125,100,119,117,115,134,115,108,109,123,124,125,120,121,125,125,120,119,120,124,121,114,115,114,109,121,122,118,123,120,120,117,143,121,122,111,114,128,120,116,114,120,120,118,126,120,124,119,116,123,122,121,120,142,132,128,126,122,122,126,124,122,120,123,125,123,123,122,122,118,128,121,130,120,122,121,117,119,115,121,110,117,121,126,119,121,127,120,119,131,120,132,125,122,119,126,120,119,124,115,121,123,121,118,122
119,119,106,123,113,122,118,124,123,120,128,125,109,120,124,126,121,122,105,119,126,119,124,114,121,123,140,121,123,120,125,125,122,123,111,113,121,121,124,123,120,121,124,123,114,119,121,127,120,121,133,125,124,129,119,121,123,123,91,105,122,118,128,144,120,122,132,121,129,117,119,114,121,121,123,120,105,128,122,113,121,123,118,127,130,115,118,125,121,122,129,124,116,123,123,122,115,121,119,119,119,120,121,108,125,122,117,121,114,130,122,125,119,120,124,122,124,120,119,113,120,121,122,121,102,122,120,142
127,122,122,125,132,125,119,107,113,122,121,124,146,117,126,123,121,122,120,121,122,131,119,104,116,120,120,120,122,120,117,109,120,121,121,122,122,119,117,122,126,123,122,123,129,124,118,152,116,121,120,121,120,120,114,103,120,121,119,119,109,121,103,112,121,121,120,123,144,126,126,129,120,121,121,125,112,115,126,103,120,121,121,123,114,121,122,122,117,122,120,120,124,120,125,119,123,122,124,123,131,127,119,124,125,119,114,118,137,119,128,123,119,122,120,120,121,118,124,130,117,120,120,121,118,126,124,112
119,121,121,123,120,122,124,122,119,122,121,124,139,119,120,111,120,121,129,124,122,121,123,130,129,123,111,116,122,122,127,131,124,121,123,122,121,123,122,114,121,121,120,124,130,119,119,110,120,122,122,120,116,119,119,127,118,121,122,121,111,122,120,115,122,120,118,115,114,118,120,109,120,120,122,123,133,121,122,131,122,122,122,123,123,121,121,125,118,121,121,124,137,118,121,111,118,121,125,122,119,136,122,117,126,120,118,123,129,119,121,131,118,120,121,122,127,119,122,112,121,124,122,122,120,122,125,135
124,123,121,122,121,122,123,116,121,120,120,121,119,116,121,118,119,121,121,121,117,120,121,118,119,122,121,121,121,121,123,123,122,120,121,122,118,121,120,120,121,122,121,121,118,121,120,122,120,121,121,121,122,118,119,119,121,121,121,122,123,119,119,123,120,122,121,122,120,120,118,117,119,122,121,122,121,121,122,120,121,122,122,123,122,121,121,118,120,124,121,121,118,125,117,117,120,122,121,121,119,120,120,125,121,121,121,123,121,121,121,123,121,121,120,121,120,120,119,117,118,121,121,122,122,122,118,118
116,121,121,122,121,121,120,122,123,120,121,122,122,119,119,119,119,121,120,121,117,121,120,122,119,121,121,122,121,121,124,118,121,121,120,122,124,121,119,111,120,122,122,120,107,121,125,123,123,121,122,122,120,121,124,129,120,121,121,122,121,122,124,110,120,121,121,122,122,121,129,127,120,121,121,122,119,120,119,117,119,121,121,121,119,120,125,121,119,123,121,121,121,121,116,124,122,122,121,123,121,121,123,112,121,120,120,121,121,121,123,123,121,122,120,121,119,121,127,118,119,122,122,122,121,120,122,123
121,121,121,122,121,121,124,110,115,123,120,121,121,120,118,116,130,122,121,121,114,121,116,111,118,121,121,122,121,121,133,134,122,122,121,121,112,121,114,109,121,122,121,122,121,121,122,120,118,121,120,121,121,120,119,113,120,123,120,121,120,120,120,114,123,119,120,121,121,121,123,152,122,122,122,123,122,122,123,116,117,120,121,121,122,119,117,116,120,120,121,121,121,118,112,91,120,121,120,122,122,123,127,139,120,121,121,121,120,119,120,119,120,121,122,122,121,122,128,126,122,122,120,121,120,120,134,119
121,122,121,122,119,120,109,108,120,121,121,121,120,120,123,117,121,122,122,122,121,121,120,124,120,122,121,122,119,121,121,115,120,123,121,122,120,120,117,119,118,119,121,122,120,122,129,116,124,122,120,121,121,122,126,132,119,120,121,122,121,121,120,116,119,122,121,122,122,122,122,132,120,119,121,121,121,121,120,117,120,121,121,121,120,121,121,120,122,123,121,122,122,122,122,125,119,121,121,121,121,120,119,120,120,121,121,122,122,121,123,114,120,120,121,122,121,122,120,128,122,123,121,122,121,120,125,124
117,120,121,122,122,122,116,109,125,123,122,122,121,121,118,126,121,120,120,122,126,121,123,121,122,123,121,123,121,121,121,123,121,120,120,121,121,121,120,119,120,122,121,121,120,120,123,122,121,122,121,122,121,121,128,128,118,121,121,122,121,121,121,113,122,121,121,121,121,122,126,129,120,122,121,122,120,119,119,121,121,121,120,121,121,121,122,120,115,118,120,122,121,121,122,120,118,124,122,122,121,122,121,119,120,121,121,122,121,121,121,116,122,120,121,122,122,121,122,129,126,122,122,122,121,121,123,123
119,122,122,123,121,121,121,116,119,120,121,121,120,121,121,120,120,122,120,121,121,121,121,121,122,122,121,122,121,121,121,118,121,122,121,121,121,121,122,122,120,120,121,122,122,121,120,119,119,121,121,122,121,121,121,118,120,121,121,122,121,121,121,119,117,122,122,123,122,121,121,119,120,121,120,121,121,121,122,120,124,121,120,121,121,121,121,121,119,121,120,121,121,121,122,121,119,122,121,122,122,120,120,122,120,121,121,121,121,121,121,119,123,119,120,122,121,121,121,119,123,124,121,122,121,122,123,123
114,120,121,122,121,121,121,115,128,119,120,121,121,120,119,118,118,121,121,122,120,120,120,120,121,122,121,122,122,122,122,128,121,124,121,122,121,120,121,121,119,120,120,120,121,121,120,116,120,122,121,122,121,121,121,121,122,122,121,122,121,121,122,121,121,122,121,121,121,121,121,121,120,120,121,121,121,122,122,122,122,119,121,122,121,122,121,119,119,121,121,121,121,122,122,120,121,122,121,121,120,121,122,122,123,122,121,120,121,121,122,124,119,121,121,122,121,120,122,116,122,123,121,121,121,121,122,122
121,120,121,122,121,121,120,118,117,120,121,122,121,120,119,117,114,122,120,121,122,122,121,115,128,121,121,122,121,121,121,122,119,120,121,122,122,122,121,124,119,120,120,122,121,121,121,120,120,122,121,121,121,121,121,121,120,121,122,122,121,122,121,119,121,124,121,121,120,121,122,122,122,121,121,122,121,121,125,122,120,123,122,122,121,120,119,115,120,120,120,121,121,121,122,118,117,120,120,121,121,120,120,116,121,122,121,121,121,121,122,125,122,122,122,121,120,120,120,120,118,120,120,121,121,121,122,121
122,121,120,121,121,121,121,120,120,121,121,121,120,121,121,119,120,122,121,122,121,122,120,118,120,121,121,122,121,122,121,121,123,123,122,123,121,121,122,121,120,122,121,121,121,121,121,120,119,120,121,121,121,121,120,120,122,121,121,122,120,120,121,116,120,121,121,122,121,121,122,119,120,121,121,122,122,121,120,120,121,121,120,121,121,121,122,119,122,122,122,122,121,121,121,124,122,122,121,122,122,121,121,120,119,122,122,123,121,121,121,117,121,120,120,121,122,122,122,119,121,121,121,122,122,121,121,119
118,121,121,122,121,120,120,119,124,122,121,122,122,122,122,124,121,121,121,122,121,121,122,121,119,122,120,121,121,121,121,119,121,122,121,121,120,121,122,120,118,119,120,122,121,121,122,121,122,121,121,122,121,120,120,124,119,121,121,122,121,121,123,121,122,123,120,121,121,121,121,122,118,120,121,122,121,121,121,120,124,122,121,122,122,122,123,124,120,121,122,122,120,121,121,118,120,122,121,122,121,121,121,119,121,122,121,122,121,120,120,120,121,122,121,122,121,121,122,119,119,121,120,121,121,121,121,122
121,122,122,122,120,121,121,124,123,119,120,122,121,122,121,118,119,121,121,122,120,120,120,122,122,122,121,122,120,120,122,120,111,120,122,122,122,121,120,116,126,121,121,122,121,120,120,117,121,122,120,121,121,121,121,120,120,122,120,122,121,121,122,122,120,121,121,122,121,121,120,119,120,122,121,122,122,122,120,118,122,120,120,121,122,122,121,120,120,122,122,123,121,121,121,119,121,122,121,122,121,120,121,128,120,119,121,121,122,121,121,118,120,119,121,122,122,121,120,118,121,123,121,122,121,122,122,120
120,123,121,122,120,120,121,121,123,119,120,121,121,121,121,120,118,121,121,122,121,122,122,120,119,121,121,122,122,121,120,120,123,122,121,122,121,121,120,120,120,119,121,122,121,121,120,120,119,121,121,122,122,121,123,119,123,121,121,122,122,121,121,121,120,120,120,121,121,120,121,121,120,122,121,121,120,121,120,117,122,122,121,122,121,122,122,123,117,122,121,121,121,121,121,119,120,121,121,122,122,121,121,117,123,120,120,121,121,121,121,121,122,123,121,121,120,121,121,119,122,122,121,121,121,121,121,125
122,122,121,122,122,122,121,120,122,120,120,121,121,121,121,118,119,120,122,122,121,120,121,120,123,120,121,122,122,121,122,120,117,122,121,121,120,121,121,120,120,121,120,122,121,122,123,121,120,121,121,122,121,122,120,118,120,120,121,121,121,121,121,120,121,123,121,121,121,121,122,121,121,121,120,122,121,121,122,121,119,119,120,121,121,121,121,120,123,120,120,121,121,121,124,123,120,122,120,121,121,121,121,121,120,122,121,122,121,121,121,119,119,121,121,122,121,121,121,120,122,122,121,121,120,121,122,121
121,124,121,122,122,121,121,118,121,120,121,122,121,120,121,118,121,122,120,121,121,121,121,122,120,122,121,122,122,121,120,120,121,122,121,121,120,120,121,121,121,122,120,121,121,121,121,119,119,122,121,122,122,122,121,118,123,123,120,122,122,122,123,121,121,122,121,122,120,120,121,124,120,120,120,122,121,121,121,120,121,123,121,122,121,121,122,120,122,121,122,122,122,121,120,120,118,121,120,121,121,121,121,118,125,121,120,121,121,121,122,125,121,121,121,122,120,120,120,118,120,122,121,121,120,120,120,120
121,122,121,121,120,121,121,122,117,119,120,122,121,121,121,119,124,122,121,121,120,121,121,120,120,122,120,121,121,121,121,121,120,121,120,122,121,121,121,121,120,121,121,122,122,121,122,120,121,122,122,122,121,120,121,122,120,122,122,123,122,122,122,117,121,123,121,121,121,121,121,121,120,121,121,122,121,121,121,120,121,120,121,121,121,121,123,123,121,122,121,122,121,121,122,119,120,122,121,121,120,121,121,120,120,121,121,122,121,121,121,118,121,121,122,122,121,120,121,121,119,121,121,122,121,121,122,121
120,122,120,121,121,121,121,120,120,121,121,122,121,120,120,119,119,121,121,122,121,121,120,120,121,122,122,122,121,120,121,120,121,122,121,122,121,120,121,121,120,119,120,121,121,121,121,119,116,119,120,122,121,122,121,116,120,121,121,122,122,121,122,119,122,121,121,122,121,121,121,121,118,120,121,122,121,122,120,121,122,121,120,121,121,121,122,123,122,123,120,121,121,121,121,120,121,121,121,122,121,121,122,121,120,120,121,122,121,121,121,120,121,121,120,121,121,121,121,119,118,121,121,122,121,121,122,117
121,120,120,121,121,121,122,121,121,122,122,121,121,121,121,121,120,122,121,121,120,121,121,121,121,122,122,121,120,121,121,120,119,121,121,122,121,121,121,121,121,122,122,122,122,122,121,120,120,122,121,122,122,121,120,120,121,122,121,122,120,120,121,121,120,122,121,122,121,121,121,120,121,121,121,122,121,122,121,122,120,121,121,121,120,121,121,119,120,123,121,122,120,120,121,121,120,122,121,122,121,120,121,118,120,121,120,121,121,121,122,123,120,123,121,122,121,121,120,120,122,121,120,122,121,121,122,122
120,121,121,122,121,120,121,121,121,120,121,122,121,121,121,119,122,121,121,122,122,121,121,119,121,122,121,121,121,121,121,121,120,122,121,121,120,120,120,120,121,122,120,121,121,121,121,121,121,122,122,123,121,122,122,121,120,123,121,122,120,121,121,120,121,120,121,122,121,121,121,121,120,122,121,122,121,121,121,120,119,121,120,122,122,121,121,119,120,122,121,121,121,121,121,119,120,121,120,121,120,120,121,120,121,122,121,122,121,120,121,120,121,121,121,122,122,121,120,118,119,121,121,123,121,120,121,121
121,121,121,122,121,121,122,121,120,122,121,122,121,120,122,119,121,122,120,122,121,121,121,121,117,120,122,122,120,120,121,118,125,122,121,121,120,121,121,122,117,119,120,122,121,121,124,122,121,122,121,121,121,121,121,122,122,121,121,122,122,122,121,120,121,123,120,121,121,121,121,121,122,121,121,122,121,120,121,123,121,119,121,122,122,121,120,120,121,122,121,122,121,120,120,121,121,122,122,122,121,121,122,125,121,121,121,122,121,121,121,118,120,120,121,122,121,120,120,121,121,123,121,121,121,121,122,121
119,121,121,122,121,121,121,120,120,121,121,122,121,121,120,119,120,119,120,122,121,121,121,120,120,124,122,122,121,120,121,121,120,121,121,121,121,121,122,121,120,120,121,121,121,121,121,119,120,121,120,122,121,121,122,121,120,123,121,122,121,120,120,119,121,121,121,123,121,121,121,122,122,120,121,121,121,121,122,121,117,118,121,122,121,121,121,120,122,123,121,122,122,121,121,119,121,122,122,123,121,121,121,121,121,121,121,122,121,120,121,118,120,120,121,122,122,121,121,121,120,122,121,122,120,120,121,120
121,120,121,122,121,121,121,121,121,121,121,122,122,122,122,121,121,122,120,122,121,121,122,119,121,122,121,121,121,121,121,120,120,121,120,121,121,121,121,122,121,121,121,122,122,121,121,121,120,120,121,122,121,120,121,119,120,121,121,121,121,121,121,123,123,121,121,122,120,120,121,119,118,120,120,121,121,121,122,119,120,121,120,122,122,122,122,119,121,122,121,123,121,120,121,122,120,122,122,122,121,120,121,118,120,121,122,121,121,121,121,120,122,121,121,122,121,120,121,122,119,122,121,122,121,121,121,121
121,121,121,122,120,120,121,119,121,122,121,122,122,121,121,119,121,122,121,122,121,122,121,119,120,122,121,122,122,121,122,122,121,123,121,122,121,120,120,120,120,121,121,122,121,121,121,118,120,121,121,122,122,121,122,124,120,121,121,122,122,122,121,117,119,122,121,122,122,121,120,119,121,119,121,121,121,122,121,120,120,122,122,122,121,120,121,121,121,121,121,122,121,121,122,120,120,122,120,121,121,121,121,121,121,121,121,121,121,121,122,121,122,122,121,121,120,121,121,121,121,122,120,121,121,121,120,120
118,122,120,121,121,121,122,122,123,121,120,121,121,121,121,119,120,121,121,122,121,121,121,121,120,120,121,122,121,121,122,120,120,120,121,122,121,121,121,119,121,123,120,122,121,121,121,121,120,121,120,122,121,121,121,120,121,122,122,122,122,122,121,121,121,122,121,122,121,121,122,120,121,122,121,122,121,120,121,121,118,120,120,122,121,121,121,120,122,122,121,121,121,121,122,119,121,122,121,122,120,120,121,121,120,121,121,122,120,120,120,121,121,119,120,121,121,121,121,121,121,122,121,122,120,120,121,121
120,122,122,122,121,120,122,121,120,121,120,121,121,121,121,120,121,123,121,121,121,121,121,119,122,122,121,122,121,120,121,123,121,122,122,122,121,121,121,122,120,120,120,121,121,121,121,120,122,122,122,122,120,121,121,120,121,122,121,121,120,121,122,119,121,122,121,122,121,121,122,123,120,120,121,121,121,121,121,117,120,121,120,121,120,121,121,120,121,122,121,121,121,121,122,126,120,121,120,121,121,121,122,120,120,122,122,122,120,120,121,120,121,122,121,121,121,121,121,121,122,122,121,121,120,121,121,120
119,121,121,122,121,121,120,120,121,120,121,122,121,121,122,121,121,124,121,122,121,120,121,119,121,122,120,122,121,121,122,120,118,121,121,122,120,120,121,119,122,121,120,121,121,121,121,121,122,122,121,121,121,121,122,120,120,120,120,121,121,121,122,119,120,121,120,121,121,121,121,120,121,121,121,122,120,120,121,120,119,120,121,121,121,121,121,121,121,121,121,122,122,121,120,120,120,121,121,122,121,121,122,122,121,121,120,122,121,122,121,120,119,122,121,122,121,121,121,121,122,121,121,122,121,121,121,118
119,121,121,122,122,121,120,120,121,121,121,122,121,121,122,119,122,122,122,122,121,121,122,121,121,122,121,122,121,121,120,121,121,121,121,122,121,121,121,122,121,120,121,121,121,121,121,117,121,122,121,122,121,120,121,122,120,121,121,122,121,121,121,120,119,120,121,122,121,121,121,120,120,120,120,122,121,121,122,120,121,123,121,122,121,121,121,120,121,123,121,121,121,121,121,120,120,123,122,121,120,120,121,121,121,122,121,122,120,121,121,119,120,122,121,121,120,121,121,121,119,121,122,122,121,121,122,119
121,121,121,121,121,121,121,120,121,122,121,122,122,121,121,121,121,122,121,121,120,121,122,119,123,122,121,122,122,122,122,122,120,122,121,122,121,121,122,120,120,121,121,122,121,121,121,120,121,121,121,122,121,122,121,119,120,122,121,121,121,121,121,120,122,121,121,122,121,121,120,120,119,120,121,122,122,121,121,118,119,121,121,122,121,121,120,119,122,121,121,122,121,121,122,121,121,122,122,121,120,121,121,121,121,121,120,121,121,121,121,120,119,121,120,121,121,121,121,119,122,122,120,121,121,121,121,122
121,121,122,122,121,121,122,122,121,121,121,122,120,120,121,121,121,121,120,121,121,122,121,119,120,122,122,122,120,120,120,119,121,121,121,122,121,122,121,120,120,121,121,122,120,121,121,120,120,120,121,122,121,121,121,121,119,121,121,122,121,120,120,119,122,122,120,121,121,121,121,121,121,122,121,122,121,121,121,122,122,122,121,121,121,121,121,120,120,122,121,121,121,121,122,121,120,121,121,122,121,121,121,119,121,122,122,122,121,121,122,121,120,122,120,121,121,121,121,121,122,122,120,121,121,121,121,121
121,122,120,121,121,121,122,122,120,121,120,122,121,121,121,121,122,119,121,122,121,122,123,122,121,123,121,121,121,121,121,121,120,121,121,122,121,121,120,120,121,121,121,122,121,121,120,120,120,120,121,122,121,121,122,121,120,120,121,122,122,122,122,122,120,121,120,121,121,121,122,120,120,121,120,121,121,121,122,121,121,121,121,122,122,122,121,120,120,122,122,122,121,120,121,121,120,121,120,122,121,121,121,120,121,123,121,121,120,121,120,121,122,121,121,122,122,122,123,122,119,120,120,121,121,121,121,119
119,122,120,121,121,121,121,119,121,121,121,122,121,120,121,120,120,120,121,122,122,121,121,119,121,122,120,121,121,121,121,122,120,122,121,122,121,120,121,119,120,122,120,121,121,121,121,121,121,122,121,122,122,121,120,120,122,122,121,122,121,122,122,122,119,119,120,121,121,121,122,124,123,120,120,121,121,121,121,120,120,122,121,122,122,121,122,118,121,122,121,122,122,122,122,121,121,120,120,121,121,121,121,121,120,121,120,122,121,121,122,122,121,121,121,122,122,122,121,116,118,121,122,122,122,121,120,119
120,120,120,121,121,121,123,121,120,122,121,122,122,121,120,120,120,121,121,122,121,122,120,118,122,122,122,122,120,121,121,121,122,120,121,122,121,121,121,123,119,121,121,122,121,120,121,118,121,121,120,121,121,121,121,121,121,121,120,121,121,121,121,121,119,121,120,121,121,121,122,123,122,123,120,121,121,120,120,120,121,121,121,122,122,122,122,120,121,121,121,121,120,121,121,121,120,122,122,122,122,122,121,119,120,122,121,121,121,121,121,120,122,122,121,122,121,120,120,119,121,120,121,121,120,121,121,121
122,121,120,121,121,121,121,121,119,123,121,122,121,121,121,122,121,121,121,121,121,120,121,121,120,120,121,122,121,121,123,118,121,121,121,121,121,120,121,120,121,122,121,122,122,122,121,121,120,122,121,122,120,120,121,121,121,122,121,122,122,121,120,120,119,121,121,122,121,121,121,119,122,120,121,122,122,121,121,121,121,121,120,121,121,121,121,120,120,122,121,122,121,120,121,120,121,121,121,121,121,121,122,121,120,121,120,121,121,121,122,121,122,121,120,121,121,121,121,122,120,122,120,121,120,121,121,121
123,120,121,122,122,121,121,120,120,121,121,122,121,120,121,119,120,120,120,121,121,121,121,120,119,122,121,122,121,120,121,121,121,122,120,121,121,121,122,123,121,121,121,122,120,120,121,119,121,123,121,122,121,122,123,121,122,122,120,121,121,121,122,123,119,123,121,121,120,120,121,118,121,121,121,121,120,121,122,122,120,120,120,122,122,122,122,121,121,122,122,122,121,120,121,120,120,122,122,122,120,120,121,121,120,121,120,121,121,121,121,120,121,121,121,122,121,121,122,121,121,122,121,121,120,121,124,122
120,121,120,122,121,121,121,119,121,123,121,121,120,121,121,120,121,120,120,121,121,121,121,120,116,121,121,121,121,121,122,121,122,122,121,122,121,120,121,121,122,121,120,121,121,121,121,120,120,121,121,122,121,120,121,120,120,121,122,122,122,121,122,122,121,122,121,122,120,120,120,120,120,121,121,121,121,121,121,120,120,121,121,122,122,121,120,120,122,121,122,122,121,122,122,121,120,121,121,122,121,121,121,120,121,121,121,122,122,121,120,122,120,120,121,122,122,121,120,120,121,122,121,122,120,120,121,120
120,122,121,122,121,121,120,119,120,121,121,121,121,121,121,121,121,123,121,122,121,121,120,119,120,122,121,122,120,120,121,120,121,123,121,122,122,120,120,119,121,122,121,121,120,121,121,120,120,121,121,122,121,120,120,120,121,123,121,121,121,121,122,122,120,121,121,122,120,120,121,120,120,120,121,122,122,122,121,119,120,122,122,122,120,120,121,120,120,122,121,122,120,120,121,119,122,122,121,122,122,122,122,120,118,122,121,122,121,121,121,117,121,121,121,122,122,121,120,119,120,121,121,122,121,121,121,120
121,122,121,122,121,120,121,121,118,121,121,122,122,120,120,119,120,122,121,122,121,120,121,120,121,121,120,122,121,121,122,121,120,122,121,122,121,121,122,121,119,120,121,122,121,121,122,120,120,121,121,122,121,120,120,118,120,123,121,122,120,120,122,121,120,121,121,122,121,121,121,120,121,122,121,122,121,121,122,121,122,121,121,122,121,120,121,120,119,120,121,122,121,121,122,119,120,123,121,122,121,121,121,119,121,120,120,121,121,121,121,121,120,121,121,122,120,120,121,120,120,122,121,122,121,121,120,120
121,121,121,121,121,121,121,121,120,121,121,122,121,121,120,120,121,121,122,122,121,121,122,121,120,120,120,122,121,121,121,120,121,123,121,121,121,121,122,120,120,121,121,122,121,122,122,120,121,121,120,122,121,121,122,120,120,121,121,122,121,121,120,120,120,122,122,122,122,121,122,120,120,120,121,122,121,121,120,118,122,121,120,121,121,121,121,124,121,123,120,122,122,121,122,120,121,123,121,121,120,121,121,120,119,120,120,122,121,121,122,120,120,122,121,122,121,120,121,118,120,123,121,121,121,121,123,122
120,121,120,122,121,121,121,119,120,120,120,121,121,121,121,118,120,121,121,122,121,122,121,120,121,122,121,122,122,121,121,120,119,122,120,121,121,121,123,121,122,122,121,121,121,121,121,121,119,120,120,121,120,121,121,120,122,122,121,122,122,122,122,121,121,122,120,121,121,121,121,121,121,123,121,122,121,121,121,121,119,122,121,122,121,120,121,119,123,121,121,121,121,121,123,122,119,119,121,121,121,122,122,120,120,121,120,121,121,121,121,119,120,122,120,122,121,121,121,121,121,122,120,121,121,121,121,120
120,122,121,122,121,120,121,121,121,121,122,122,120,120,121,119,119,121,121,122,121,122,121,119,121,121,120,121,121,121,122,121,123,123,121,122,121,121,122,123,119,122,121,121,120,120,121,119,120,120,121,122,121,122,122,122,121,122,121,121,120,120,121,121,121,123,122,122,122,121,121,121,120,122,121,121,121,121,121,120,122,121,121,122,122,121,121,120,119,120,121,122,122,121,121,119,122,122,120,121,120,121,122,121,120,122,122,121,120,121,121,121,121,122,121,121,120,120,121,120,119,121,121,121,121,121,121,121
120,121,121,121,120,121,121,121,123,123,122,123,121,121,122,122,123,121,121,121,120,121,121,120,119,120,121,122,121,121,120,119,120,120,121,121,122,121,122,122,119,120,120,122,121,121,121,119,121,120,122,122,120,120,121,121,119,122,121,121,120,121,121,120,122,121,120,122,121,121,121,120,120,121,120,122,121,121,121,120,120,121,121,122,121,121,121,119,120,122,121,122,121,121,121,120,119,123,121,122,121,120,121,120,122,119,120,121,121,121,121,121,119,121,121,122,121,121,121,119,120,121,120,122,121,121,121,120
119,122,121,121,121,121,121,120,121,121,121,122,121,121,120,120,119,121,122,122,122,122,122,121,122,121,120,121,121,121,121,121,120,122,121,121,120,121,121,121,120,120,121,122,121,121,121,120,120,121,121,122,121,121,120,120,120,122,121,122,121,121,123,121,120,122,120,121,121,121,121,118,123,123,120,122,122,122,121,120,120,120,121,122,120,120,121,121,120,122,121,122,121,121,121,119,119,122,120,121,121,121,121,120,117,120,121,122,121,121,122,120,122,122,120,121,120,121,121,120,119,121,121,122,122,121,120,120
124,122,121,121,120,121,120,121,118,120,121,122,122,121,120,121,120,122,120,121,121,121,121,120,121,123,121,122,122,121,122,120,121,122,121,122,120,121,121,119,120,120,121,122,121,121,121,120,120,121,121,122,122,121,120,119,122,122,121,122,122,122,121,121,120,122,122,121,120,121,121,119,121,121,121,122,120,120,121,122,120,121,121,122,121,120,121,121,120,122,122,121,121,120,121,120,120,121,120,121,121,121,122,120,124,122,121,122,121,120,121,122,120,120,120,122,121,121,124,121,121,122,120,122,121,121,122,121
121,121,122,123,121,121,121,121,119,120,120,121,121,121,121,120,122,120,120,122,121,121,121,119,121,123,120,121,121,121,121,121,122,122,121,122,121,122,122,119,119,120,120,121,121,121,121,122,121,122,120,121,121,121,121,119,121,121,121,121,120,120,121,121,120,121,121,121,121,121,122,120,123,123,121,122,121,121,121,121,120,122,120,121,121,121,121,121,119,121,121,122,120,121,121,120,120,122,122,122,122,121,121,119,121,122,121,122,120,120,121,120,120,121,121,121,121,121,121,121,121,124,121,122,121,121,121,121
120,121,121,122,121,121,122,120,120,121,122,121,121,121,122,121,122,122,121,121,121,121,121,120,121,122,121,121,121,121,122,122,120,122,121,122,121,121,120,120,119,120,120,121,120,120,121,119,120,122,121,122,121,120,121,120,122,121,121,122,121,121,121,120,120,122,121,122,120,120,120,120,117,121,121,121,121,121,121,120,121,121,122,122,122,121,121,120,120,121,120,121,121,121,121,121,121,122,120,121,121,121,122,123,120,121,121,122,121,122,122,119,121,122,122,123,121,121,121,119,122,123,120,121,121,121,122,123
121,121,121,122,121,122,121,119,120,121,121,121,120,120,120,120,120,122,121,121,120,121,121,119,123,122,121,122,121,122,121,120,117,120,120,121,121,121,121,119,120,122,121,123,121,120,120,118,121,121,121,122,122,121,122,121,120,121,120,121,121,121,122,121,120,122,120,121,121,121,122,122,120,120,121,122,122,121,120,120,120,121,121,121,121,121,121,119,122,122,122,123,122,121,121,121,121,121,120,121,121,121,122,122,119,121,121,122,121,120,120,119,121,121,121,122,122,122,121,119,121,121,121,122,122,121,122,120
121,122,121,122,121,121,123,122,119,121,121,122,121,121,121,118,122,122,121,122,121,120,120,120,119,121,121,122,121,120,121,119,122,122,121,122,120,121,121,121,121,122,121,121,120,121,121,120,121,121,120,121,121,121,122,121,118,122,121,122,122,120,120,120,120,121,121,122,121,122,122,120,123,122,120,121,121,121,121,121,119,122,121,122,120,121,121,119,121,121,120,121,121,121,121,121,121,123,121,122,122,122,121,120,120,121,121,122,121,121,120,119,120,120,121,122,122,121,121,120,120,121,121,122,120,121,122,120
121,122,121,122,122,122,122,121,120,121,120,122,121,121,122,119,121,122,121,122,121,120,121,120,122,121,120,121,121,121,121,122,119,120,120,121,121,121,121,121,120,122,121,122,122,121,120,120,120,120,121,121,121,121,122,120,121,123,121,122,120,120,121,119,119,121,121,122,121,120,121,121,121,122,121,122,120,121,122,123,121,121,120,121,121,121,120,119,121,123,122,122,121,120,121,119,121,123,120,121,121,121,121,121,120,121,122,122,122,121,120,120,121,121,120,121,120,121,122,120,120,121,121,121,121,121,121,120
121,121,121,122,121,121,121,120,118,120,121,121,121,121,121,120,120,119,120,121,121,121,121,120,120,121,121,122,121,122,122,121,121,122,122,122,120,121,121,121,118,120,121,121,121,121,122,121,122,121,122,123,121,121,121,120,119,124,121,122,121,120,122,121,124,122,120,121,121,121,121,121,120,121,122,122,121,120,122,118,120,121,122,122,121,121,122,121,121,121,121,122,121,121,121,121,118,120,121,122,122,122,122,119,119,120,121,122,121,121,121,120,121,121,120,122,121,121,123,120,120,122,122,122,120,121,121,120
119,121,121,122,121,121,121,121,124,121,121,122,122,121,121,119,119,122,120,122,121,121,121,119,120,121,121,121,121,121,121,121,119,120,121,122,121,121,122,120,120,120,120,121,121,121,121,120,121,120,120,121,121,121,121,120,122,123,121,122,122,122,122,121,119,120,121,122,121,121,122,121,121,120,120,121,121,121,121,119,120,122,122,121,120,121,121,120,123,122,121,121,121,121,122,122,120,121,120,121,121,121,121,121,120,121,121,122,121,120,120,119,120,122,120,121,121,121,122,120,121,123,121,121,121,121,122,120
120,122,121,122,122,121,121,120,120,121,122,122,120,120,122,122,120,120,121,122,121,121,121,120,120,121,120,121,121,121,121,120,119,121,121,122,121,121,120,121,122,119,121,122,121,121,121,122,120,121,120,122,121,121,121,119,121,122,122,122,121,120,120,120,122,123,120,122,121,122,122,122,121,122,121,122,121,120,120,121,121,121,120,121,121,121,122,120,119,122,121,122,122,121,122,120,121,121,121,122,122,122,121,121,121,121,121,122,121,121,122,119,120,120,120,121,121,121,123,120,120,122,121,122,122,121,121,118
122,121,121,123,122,120,120,120,120,123,122,122,121,121,122,122,121,122,120,121,120,120,121,121,121,121,121,122,120,120,121,121,121,122,121,122,121,121,121,120,121,121,121,122,122,122,121,120,121,122,121,123,121,120,121,120,120,121,121,122,121,120,121,119,120,121,121,122,121,121,121,120,120,121,120,122,121,122,121,121,120,121,121,122,121,121,121,118,120,120,122,122,121,121,122,120,120,122,121,121,121,120,121,120,121,121,120,121,121,121,123,121,124,120,121,122,121,120,120,120,120,125,121,122,121,120,121,121
119,120,121,121,120,121,121,118,121,121,121,121,121,120,121,121,119,121,121,122,122,121,122,121,121,121,122,122,120,120,121,120,121,121,121,122,121,121,122,121,119,121,121,122,120,120,121,119,123,122,122,122,121,122,122,122,120,123,121,122,121,122,121,120,120,120,121,122,121,121,121,119,121,121,121,122,121,120,121,121,120,120,121,122,122,121,120,120,119,123,121,121,121,121,121,121,121,122,120,121,121,121,121,122,120,119,120,122,121,121,122,120,122,122,121,121,120,120,120,119,119,122,120,121,121,121,122,121
119,120,121,122,121,122,121,118,121,121,120,122,122,121,120,120,119,120,121,122,121,120,121,120,121,122,121,121,120,120,120,120,121,122,121,122,120,121,121,119,119,122,121,121,121,120,121,122,122,122,120,121,121,121,122,121,120,120,121,122,122,122,122,121,121,122,121,121,120,121,121,120,121,122,121,122,120,121,121,119,119,121,121,122,121,122,121,122,122,122,121,121,120,121,121,119,121,122,121,122,121,120,121,120,121,121,120,121,121,121,121,121,121,122,122,122,120,120,121,121,120,121,121,122,121,122,120,120
119,122,121,122,121,121,120,120,121,119,121,122,121,120,120,119,119,121,121,122,122,121,120,120,121,122,121,121,120,121,121,120,120,121,121,121,121,121,121,121,122,121,120,121,121,121,121,120,120,122,121,122,121,122,122,120,118,121,121,122,121,121,120,119,123,123,121,122,121,121,122,121,120,120,120,121,121,121,121,121,120,121,121,121,120,120,121,120,122,122,122,122,120,120,122,121,120,122,121,122,122,122,121,119,124,121,120,121,121,121,122,122,122,121,120,121,121,121,121,122,119,121,121,122,121,122,121,119
121,123,121,121,121,121,122,121,120,121,122,121,121,121,122,120,119,122,121,122,121,120,120,117,121,121,121,122,121,122,121,120,119,121,120,121,120,121,121,121,122,124,122,122,121,121,121,121,120,120,121,122,121,121,122,121,121,120,121,121,121,121,122,120,120,122,121,122,120,120,122,121,119,121,121,122,122,121,121,120,123,121,121,122,121,121,121,121,120,122,121,122,121,121,121,119,121,122,122,122,120,121,121,121,121,121,121,122,121,120,121,120,119,120,121,122,121,121,121,118,120,121,120,121,121,121,122,122
123,121,121,122,121,122,122,125,118,121,121,122,122,120,120,119,121,120,121,122,122,122,122,119,118,121,121,122,121,121,121,119,121,122,120,121,121,121,121,122,122,122,121,122,121,120,121,120,118,120,121,122,121,122,121,118,122,120,121,122,121,121,120,120,121,120,120,121,121,121,122,122,120,122,121,122,121,121,122,121,120,121,121,122,122,121,120,119,120,121,121,122,121,122,121,119,121,123,121,121,121,121,121,121,121,121,121,122,121,120,120,122,121,120,120,121,121,121,121,120,121,121,120,121,121,121,121,119
119,121,120,122,121,121,121,120,120,122,121,122,121,120,120,119,121,121,121,122,121,121,121,119,121,123,122,121,121,122,122,122,120,123,121,122,121,120,121,118,120,121,121,122,121,120,121,120,122,121,121,122,121,121,121,118,120,122,121,122,122,122,122,122,121,122,120,121,121,121,121,119,120,121,120,121,121,121,121,121,119,122,121,121,121,120,121,120,122,122,121,121,121,121,121,122,121,121,120,121,121,121,121,120,121,121,121,121,121,121,121,121,120,122,120,121,121,121,121,119,121,122,122,122,120,121,121,123
122,121,120,120,121,121,122,120,119,122,121,122,121,121,120,120,121,120,121,122,121,121,122,122,121,121,121,122,120,121,121,121,121,121,121,121,121,121,121,120,121,123,121,121,120,121,121,122,121,121,121,122,121,120,120,120,121,121,121,121,120,121,121,120,121,122,122,122,122,121,121,121,122,123,120,121,121,121,121,120,121,122,121,122,120,121,122,121,119,120,121,121,121,120,121,121,121,123,122,122,120,120,121,121,119,120,120,121,121,121,122,120,120,120,120,121,121,121,121,120,118,122,121,121,120,121,121,121
123,121,120,122,121,121,121,120,119,121,121,122,122,122,121,121,120,120,121,122,121,121,121,119,121,122,121,121,121,121,123,120,119,122,120,121,121,121,122,120,121,120,120,122,121,121,122,121,121,122,120,121,121,121,121,120,121,122,120,121,121,121,120,121,119,122,120,121,121,121,122,121,122,121,121,121,121,121,121,119,120,120,120,121,121,121,121,122,121,122,121,122,121,121,122,121,121,122,122,122,120,120,120,120,120,119,120,122,121,121,121,121,121,122,121,121,120,121,121,121,120,121,120,122,121,121,122,119
120,121,121,122,121,121,121,120,122,120,120,121,121,121,121,120,123,123,121,122,122,121,121,120,119,120,121,122,121,121,121,120,122,121,121,122,122,122,122,119,119,120,121,122,121,121,121,123,121,123,121,122,122,121,121,118,120,123,121,121,121,121,122,120,120,121,121,122,121,121,121,124,120,121,121,122,121,122,121,118,120,121,121,121,120,120,120,119,121,121,121,122,121,121,121,121,120,123,120,121,120,120,121,118,121,122,121,122,121,120,121,118,120,121,120,121,121,121,122,123,120,121,121,122,121,121,120,119
121,121,121,122,122,121,120,119,121,122,121,121,121,121,122,123,123,122,121,121,121,122,121,119,121,121,121,122,121,121,123,122,119,122,120,121,121,121,121,122,119,119,120,121,121,121,122,121,122,123,121,122,120,120,121,121,120,123,121,122,122,121,122,120,122,121,121,122,121,120,121,120,120,121,121,122,121,121,121,119,121,121,121,121,121,121,121,121,123,121,121,122,121,122,121,120,119,121,121,122,121,120,120,119,120,121,120,122,121,122,122,120,123,122,122,122,120,120,121,120,119,121,121,122,121,121,121,120
120,122,121,122,122,121,121,121,120,121,121,122,121,121,120,121,122,121,121,122,121,120,120,122,119,121,121,122,122,121,121,118,120,122,121,122,121,121,122,121,122,122,121,121,120,121,121,120,121,122,121,121,120,120,121,122,122,121,121,122,122,122,121,121,120,122,121,122,121,121,121,117,123,121,120,121,121,121,121,120,120,121,120,121,121,121,121,121,121,122,121,122,121,121,121,120,120,122,120,121,121,121,120,120,123,120,120,121,121,121,121,120,120,121,121,122,122,121,121,119,121,121,121,122,121,121,121,121
121,122,121,122,121,121,122,119,119,122,121,122,121,121,121,122,119,119,121,122,121,122,121,118,122,122,122,122,120,121,121,121,120,121,120,121,121,121,122,120,121,121,121,122,121,120,120,120,120,121,121,122,121,121,121,120,120,121,121,122,121,121,121,120,120,122,121,122,121,120,121,120,119,121,121,121,121,121,121,120,123,123,122,122,121,121,122,122,119,121,122,122,121,120,121,121,119,123,120,121,121,121,121,121,121,121,120,121,121,121,121,119,122,122,121,122,121,122,122,124,119,122,121,122,121,120,121,117
122,119,121,122,122,121,121,120,120,120,121,121,121,121,123,122,121,123,120,121,121,121,121,119,119,121,121,122,122,121,120,119,124,120,121,122,121,121,120,120,119,120,121,121,120,121,121,120,119,122,121,122,121,121,120,120,122,120,121,122,121,121,122,120,120,122,121,121,121,121,121,120,119,120,121,121,121,122,121,120,121,121,122,122,120,121,121,119,121,123,120,122,122,122,123,121,121,121,121,122,121,120,120,120,121,121,120,122,121,121,121,120,119,121,121,122,121,121,121,118,122,123,121,122,122,121,122,120
119,123,121,122,122,121,120,119,122,120,121,121,121,121,122,121,119,120,121,122,121,121,122,120,119,121,121,122,121,121,122,119,120,121,122,122,120,120,121,120,121,122,121,121,120,120,121,121,119,120,121,122,121,121,121,119,118,121,121,122,122,121,122,120,121,122,121,122,121,121,122,119,119,120,121,122,121,121,121,119,122,121,121,122,122,121,120,120,117,120,120,121,121,121,121,120,120,123,121,122,122,121,121,119,119,120,121,122,121,121,121,120,122,120,121,122,122,122,121,123,120,121,121,122,121,121,122,121
120,122,122,123,122,121,121,118,119,121,121,122,121,120,120,121,121,120,121,122,121,121,122,120,121,122,121,122,121,121,120,119,118,123,121,122,120,120,120,117,123,120,121,122,121,122,123,120,117,120,121,121,120,120,119,113,122,122,121,121,120,120,121,129,122,123,123,123,122,122,123,108,117,119,116,118,120,120,120,122,123,121,125,126,122,123,126,136,118,122,116,120,122,121,119,115,123,122,124,123,117,120,121,125,119,120,123,123,125,122,123,126,119,121,117,120,118,118,121,118,119,122,126,123,125,123,118,116
120,125,112,124,119,122,121,134,131,121,123,126,109,121,120,139,124,120,126,118,117,125,126,139,107,121,120,125,118,119,113,84,128,123,124,116,133,129,126,168,110,121,122,120,113,123,120,90,147,120,121,122,133,122,125,164,101,123,113,123,117,134,112,89,148,121,117,118,131,127,134,105,125,121,128,123,131,122,119,111,114,120,122,123,118,118,118,113,132,122,122,121,104,105,124,172,111,121,122,122,124,122,127,118,147,123,123,121,118,132,119,81,113,121,123,119,99,120,129,164,126,120,114,118,128,118,120,120
125,123,122,122,111,124,127,191,119,122,122,123,110,120,120,97,116,120,120,119,112,117,114,114,124,123,122,123,123,122,122,126,131,119,119,120,119,117,114,108,133,122,121,121,130,130,124,147,113,119,117,115,120,109,115,113,120,121,122,122,116,116,118,102,115,119,119,121,115,124,119,116,123,122,131,123,128,125,128,110,114,120,114,124,141,112,108,99,143,126,124,122,104,127,134,150,101,116,113,117,119,116,108,104,126,122,117,120,123,123,126,114,111,121,124,123,119,115,97,43,128,125,125,125,128,133,164,170
117,121,120,119,120,111,101,82,116,121,121,122,122,121,121,134,129,119,119,122,119,120,138,104,108,122,120,118,117,116,117,141,124,126,120,124,130,129,129,103,122,120,123,124,112,120,116,106,134,122,120,118,114,122,128,130,113,120,119,117,113,117,110,68,117,124,130,126,115,127,139,161,131,123,126,117,128,121,117,108,110,121,93,108,102,120,114,102,120,121,130,128,153,135,132,124,118,123,129,124,119,122,123,139,123,125,126,119,118,122,144,150,104,116,109,118,118,114,89,104,139,124,123,118,121,124,119,115
100,117,120,129,114,122,112,128,137,126,124,124,129,123,125,159,111,119,119,122,148,113,110,77,98,118,118,119,111,116,111,106,136,125,124,124,121,119,124,103,113,121,119,123,120,119,106,86,105,118,122,122,129,118,119,83,128,123,117,122,129,130,150,233,106,124,123,126,148,140,121,125,103,119,126,125,110,112,97,51,114,118,113,110,120,121,126,138,123,122,118,123,122,114,124,115,124,121,123,122,123,123,124,185,104,119,116,120,119,118,116,116,111,119,122,122,128,117,117,104,113,121,119,120,120,118,100,75
93,116,121,118,116,107,104,133,120,123,123,122,115,119,128,121,106,115,110,122,120,116,101,82,132,126,121,118,118,127,134,153,140,123,124,123,117,123,113,146,93,119,120,123,164,123,116,113,149,124,126,122,117,122,136,144,109,120,117,122,146,119,102,64,121,125,127,123,114,132,162,204,102,119,117,120,118,114,93,13,122,121,123,124,121,120,151,192,126,123,121,121,120,122,115,69,109,122,124,123,111,120,123,118,133,124,123,120,113,120,120,91,111,116,106,114,122,118,98,88,141,130,131,129,129,125,151,196
107,119,125,122,110,113,102,34,140,121,120,119,107,139,127,174,122,123,122,124,114,125,134,136,111,118,119,119,114,116,108,94,104,121,118,122,107,121,122,104,136,124,123,122,119,124,126,141,121,123,123,123,123,124,117,118,133,121,120,120,111,116,110,107,113,125,125,123,128,129,163,181,107,122,121,114,107,112,107,84,146,120,119,120,113,122,121,159,105,119,119,123,133,144,125,104,113,117,126,119,128,117,104,50,145,130,119,124,127,132,156,181,108,119,121,122,119,110,85,60,118,123,137,127,136,124,123,143
132,118,87,107,125,111,124,106,108,119,125,123,117,123,118,97,115,125,123,123,122,125,131,157,121,119,120,120,114,118,117,96,125,121,122,122,123,121,137,164,131,122,121,121,108,125,109,104,100,122,122,122,117,120,109,83,119,125,125,125,119,132,136,144,127,121,119,120,120,122,116,104,113,122,122,123,122,122,125,101,116,119,120,122,118,120,118,134,120,123,120,120,122,126,111,98,119,123,124,124,114,124,153,146,130,121,122,122,124,112,116,125,115,118,120,119,117,116,91,109,114,121,119,124,125,123,127,107
123,121,120,121,120,121,119,111,126,122,122,121,120,122,124,154,128,121,120,120,118,116,113,84,110,119,122,123,114,109,110,89,132,123,126,122,123,123,135,168,104,119,113,119,120,112,109,84,129,123,124,124,116,127,133,178,110,119,120,121,122,116,107,103,139,123,121,121,115,119,110,122,124,123,122,124,127,129,131,160,114,120,120,121,116,119,115,74,121,123,123,123,112,118,113,82,125,124,121,120,116,126,133,140,127,121,121,122,121,116,116,144,134,122,121,122,120,121,120,121,101,118,119,120,120,119,116,123
138,124,123,123,122,124,128,113,128,125,121,123,122,120,115,127,112,121,122,122,122,121,135,105,116,122,120,120,119,120,115,117,127,122,121,122,129,122,115,144,122,120,119,120,121,114,118,102,120,120,121,122,125,125,121,117,113,120,122,124,99,118,116,113,131,124,124,126,123,126,140,146,115,118,120,121,119,109,112,107,118,119,120,119,114,120,123,126,106,118,119,119,118,116,101,68,138,129,130,129,123,132,152,221,116,120,110,119,119,116,105,119,111,119,122,121,121,121,124,120,113,121,121,122,118,117,100,88
126,121,121,122,128,119,122,128,118,119,119,120,114,121,116,97,143,124,122,122,115,126,141,145,113,123,122,123,122,122,134,117,129,119,120,122,120,117,124,133,118,122,120,122,124,126,130,115,120,119,120,121,121,120,117,131,107,118,119,120,123,117,113,103,135,127,125,124,125,126,140,151,115,119,120,120,113,122,114,102,116,120,119,121,120,118,118,97,111,121,121,120,120,117,127,121,128,121,120,121,119,118,112,113,118,118,121,121,117,116,119,94,126,124,118,122,113,121,142,206,112,120,122,122,118,121,115,130
113,125,122,122,121,118,124,99,132,120,121,119,121,113,116,125,116,122,120,122,123,121,115,121,126,119,121,124,136,121,118,121,115,121,121,121,120,120,124,128,114,120,120,120,118,116,110,112,141,126,124,125,124,126,135,162,117,120,120,121,125,120,115,105,115,120,120,121,123,119,117,106,124,119,120,121,123,122,117,147,123,124,121,121,113,121,118,100,116,120,120,120,111,123,113,83,128,125,122,124,128,129,140,144,126,120,120,121,122,120,123,107,114,122,121,122,123,120,117,112,113,121,121,122,123,120,120,93
131,121,120,120,124,120,122,124,114,121,119,120,119,123,115,129,128,122,121,121,126,124,118,90,119,122,120,122,143,124,128,167,129,122,121,122,124,122,120,109,128,123,122,122,117,125,127,129,115,118,120,120,114,115,114,114,122,119,119,120,127,118,112,98,129,125,123,123,121,123,127,148,129,123,121,120,119,124,118,142,122,123,123,122,117,124,127,148,116,117,119,121,126,119,119,129,125,122,121,123,115,122,115,114,116,123,122,121,125,121,121,87,127,122,121,122,121,122,124,153,115,121,122,122,117,117,111,101
123,120,116,117,123,125,121,115,124,122,122,123,120,122,110,109,123,122,122,122,122,123,117,109,116,121,121,121,124,119,127,123,118,121,121,121,120,120,118,117,119,121,120,121,118,123,121,125,128,121,120,121,120,119,119,122,102,118,120,122,119,118,122,122,125,123,121,121,119,119,113,86,119,119,120,122,121,120,127,139,122,120,119,120,121,123,130,127,115,122,120,121,113,116,113,135,120,121,120,121,116,119,119,114,117,123,123,123,120,120,123,148,128,120,120,121,120,120,123,96,115,122,121,122,131,117,108,127
129,124,122,124,132,139,131,127,111,120,120,121,122,122,112,112,119,119,121,122,117,122,128,132,126,122,122,122,113,121,117,111,122,122,120,122,124,119,119,108,114,122,121,121,125,120,124,132,130,120,120,120,117,114,114,131,115,123,122,122,124,124,118,101,129,123,122,125,130,122,133,156,115,121,120,120,119,118,108,91,111,118,120,120,120,119,112,111,132,121,120,121,121,121,117,117,123,121,122,124,127,119,123,127,120,122,120,121,120,119,118,130,109,120,120,122,123,121,114,108,122,123,122,123,132,126,132,139
119,122,121,122,121,119,114,116,117,123,122,123,122,123,120,100,118,120,120,122,122,118,112,118,114,120,121,123,107,121,115,103,121,124,120,121,119,123,121,124,122,120,120,121,120,122,121,107,117,126,124,125,134,123,135,133,121,120,120,122,119,118,121,113,120,119,119,120,122,119,114,118,122,121,121,122,117,118,123,141,131,121,121,121,119,121,130,145,122,122,121,122,122,120,115,114,112,122,121,121,121,123,126,90,125,121,121,121,125,116,121,154,122,119,119,120,120,120,118,128,119,124,122,122,121,121,119,119
115,119,120,120,117,118,117,102,123,122,120,122,120,119,124,143,125,124,123,124,119,123,120,82,113,118,119,121,129,121,126,131,126,123,122,123,130,125,121,96,119,120,120,121,116,120,117,102,129,122,122,122,128,122,127,132,120,121,121,121,120,125,128,147,116,121,121,121,122,116,121,138,121,122,120,121,121,122,118,139,113,120,121,122,122,125,121,95,112,120,120,120,127,125,111,102,121,122,120,121,119,120,114,121,119,122,121,122,122,120,129,127,116,119,120,121,115,119,110,90,127,124,122,123,128,123,135,176
121,121,121,122,121,128,120,113,115,120,121,122,120,116,111,84,128,124,123,124,124,126,142,137,123,121,121,121,134,123,123,125,121,123,120,121,119,121,120,112,120,121,120,121,121,122,116,115,126,122,121,122,123,123,129,147,117,120,121,121,122,118,118,102,122,121,121,121,115,117,117,108,124,122,121,122,125,125,128,118,120,122,121,122,122,122,124,125,126,122,122,123,121,121,111,98,123,123,122,122,120,120,109,125,121,119,119,120,109,120,121,113,134,122,122,123,112,116,119,137,102,120,121,122,120,119,112,82
129,121,121,121,120,120,124,110,118,121,121,121,123,117,119,106,118,121,120,121,116,122,123,146,121,122,120,121,118,119,117,111,113,123,121,121,119,122,122,102,128,122,122,123,122,122,122,135,114,119,120,121,125,115,118,121,121,123,123,123,121,124,131,133,121,121,120,121,120,120,117,121,119,120,121,120,124,119,120,106,119,121,121,122,122,120,120,111,128,124,121,122,116,120,131,140,118,123,121,123,125,116,111,105,124,121,121,122,120,122,120,115,110,120,120,121,121,121,128,124,123,120,121,123,132,130,117,101
113,121,121,123,121,123,123,133,130,123,121,121,120,120,121,145,126,122,122,122,122,121,123,122,117,122,120,121,119,124,131,135,128,121,120,121,124,121,120,121,113,121,121,121,119,120,120,126,124,120,121,122,120,120,121,124,116,121,121,121,118,117,122,105,117,121,121,122,126,124,123,126,122,120,120,120,118,114,117,113,116,120,120,121,113,126,127,137,120,121,121,123,131,123,124,110,118,124,122,123,121,119,121,131,117,120,120,122,124,123,115,96,118,119,121,122,123,126,122,116,123,121,121,122,124,124,136,122
114,122,122,123,124,119,120,131,130,123,121,122,123,121,116,119,124,121,122,123,122,125,129,119,120,124,122,124,123,121,115,102,124,118,118,118,106,119,116,144,116,121,121,122,117,124,121,138,130,122,122,123,117,116,120,95,119,122,120,121,121,120,117,102,119,122,122,123,124,123,129,119,119,122,121,121,123,117,118,114,117,119,119,121,131,118,120,135,120,122,120,120,116,121,120,128,123,122,121,121,121,119,122,110,119,120,122,123,129,126,129,161,119,120,120,121,120,121,112,91,127,121,121,122,122,120,123,136
119,121,121,121,122,122,125,141,115,119,120,121,116,116,116,145,119,121,121,122,122,121,121,110,122,123,123,123,123,123,126,122,115,120,120,121,122,118,122,119,118,123,122,122,123,121,128,125,123,123,122,123,127,125,124,118,127,121,121,121,120,118,114,106,115,120,120,121,121,121,125,134,122,122,122,123,117,119,122,111,122,122,121,121,121,120,121,116,110,118,119,121,120,114,118,105,126,122,122,121,133,121,121,117,126,123,122,123,129,128,127,121,114,120,121,121,120,124,122,109,116,122,122,122,120,128,121,124
119,121,121,121,120,121,120,116,125,121,121,122,122,120,128,134,111,121,120,120,126,121,113,136,121,121,120,121,124,122,129,135,127,123,123,121,123,121,122,128,106,120,121,121,123,122,113,93,120,120,120,121,120,122,122,132,129,123,122,122,122,121,123,137,118,123,121,121,120,122,118,107,128,121,120,120,113,122,121,129,125,125,124,124,122,124,135,144,109,119,120,121,119,118,118,94,130,120,119,121,127,119,127,150,112,122,121,122,127,115,117,79,121,123,123,123,117,120,122,136,120,121,121,121,121,125,127,123
120,123,121,122,119,125,131,134,118,121,122,122,118,120,110,111,125,121,120,121,111,126,127,114,115,122,120,121,118,119,119,134,120,120,122,123,128,120,117,105,120,120,119,120,121,119,131,114,127,124,122,124,122,123,115,102,117,121,121,122,121,122,122,107,128,121,121,121,116,118,113,117,111,121,122,122,126,116,117,103,114,121,120,121,119,112,119,112,121,121,121,122,119,117,122,132,112,120,121,121,107,115,120,84,137,124,122,124,130,131,129,155,116,121,120,120,115,117,109,92,112,120,121,122,119,118,120,108
131,122,121,122,121,122,130,145,114,120,120,121,121,120,127,102,119,120,120,121,131,123,125,127,125,122,122,123,121,124,130,134,112,120,119,120,118,116,109,106,130,123,122,123,121,126,144,121,109,122,121,121,116,124,120,142,114,120,119,120,122,108,106,93,129,124,122,122,114,120,123,136,117,120,121,121,119,123,124,116,122,121,121,121,124,122,119,110,119,122,121,122,117,119,126,119,122,120,120,121,121,120,115,108,129,124,121,123,123,122,120,130,116,120,121,122,121,119,114,119,126,121,120,121,115,121,126,132
117,120,121,121,119,119,109,104,116,121,120,121,123,121,121,121,127,121,120,120,117,117,116,122,114,122,122,122,139,120,121,88,123,121,120,122,117,123,123,144,119,121,121,121,120,124,134,127,123,120,121,122,119,120,112,100,121,121,121,121,119,120,117,160,112,123,122,123,122,123,126,111,132,122,121,121,122,122,115,97,125,121,121,122,121,127,125,137,123,123,121,121,122,119,122,141,115,122,121,122,124,121,121,113,125,120,120,121,124,119,114,105,115,123,122,122,116,125,127,137,122,122,122,122,138,119,117,124
120,124,122,122,120,121,121,125,119,119,119,119,116,118,116,90,126,123,122,122,120,123,129,140,114,118,120,121,118,119,113,105,114,120,120,120,118,121,119,112,131,124,122,122,121,120,130,162,115,122,122,121,119,118,107,86,118,120,120,122,118,120,122,125,123,121,121,122,121,120,123,149,122,121,121,122,119,125,119,129,128,120,121,122,121,122,123,123,116,123,123,122,121,121,127,114,119,121,122,122,120,118,125,136,125,122,121,121,101,122,124,129,118,120,120,121,122,120,121,130,113,121,121,121,113,120,117,114
127,121,121,124,132,126,127,101,122,122,123,122,120,123,139,139,121,123,123,123,115,121,131,125,127,122,122,122,120,123,118,137,117,120,121,122,120,120,117,122,117,121,120,121,117,120,117,110,123,121,123,125,128,126,120,133,123,122,122,121,119,119,116,104,110,122,121,121,120,120,116,117,128,122,121,122,112,121,124,124,109,120,120,122,118,117,107,94,127,120,120,121,118,119,126,150,121,124,121,122,124,120,118,112,115,122,120,120,106,118,119,108,120,120,120,121,121,120,117,120,125,121,121,121,112,119,140,148
121,123,123,123,125,121,123,123,115,122,119,119,109,120,127,103,127,120,121,121,110,113,118,134,113,121,121,122,113,121,132,125,114,120,120,120,119,119,112,86,126,122,122,124,118,120,136,179,140,123,121,122,130,126,131,140,108,121,120,121,115,119,115,93,121,121,119,120,115,120,116,125,110,118,119,121,118,122,122,93,125,122,121,121,130,123,132,174,121,124,122,122,121,121,119,99,118,121,121,121,117,120,121,125,124,121,120,121,119,118,115,113,118,122,121,122,121,117,127,111,120,121,121,122,126,119,116,129
126,123,121,122,120,122,119,114,115,120,121,123,115,120,124,154,127,120,120,120,121,120,124,116,111,122,122,123,112,117,124,111,125,122,122,125,138,119,123,120,117,122,120,120,117,118,100,114,136,120,121,120,119,119,122,109,110,122,122,124,138,122,128,156,113,120,120,121,119,120,106,78,121,122,121,122,122,120,133,162,128,121,121,121,118,118,108,94,125,120,120,121,119,120,135,160,119,121,121,121,123,125,124,116,116,121,120,121,123,124,123,113,114,121,120,120,120,118,124,111,120,121,121,121,124,120,110,80
122,123,122,123,109,126,135,149,135,121,120,122,123,121,122,144,118,120,120,121,111,118,119,126,131,121,120,122,125,118,125,115,110,123,122,123,120,119,104,85,132,121,121,122,117,125,137,153,112,121,120,122,125,117,117,105,129,122,120,121,115,123,115,144,101,122,122,123,123,120,126,103,137,121,120,121,120,121,117,119,107,119,120,122,113,119,118,97,126,122,121,121,116,125,134,139,120,121,121,123,129,124,128,137,108,120,121,121,119,117,101,83,114,123,122,122,120,122,124,119,125,122,121,122,124,125,129,139
128,122,121,122,120,120,123,133,118,122,120,121,117,123,114,104,109,119,120,121,134,118,120,125,124,124,122,123,122,127,133,139,129,121,120,121,114,116,117,107,118,120,121,122,119,118,119,122,118,124,122,122,118,122,122,123,141,122,121,122,118,119,114,125,121,122,121,122,119,117,116,132,111,119,120,122,119,119,112,105,116,123,122,122,121,119,126,117,116,122,121,121,119,123,125,126,118,121,121,120,117,116,120,112,130,123,121,122,126,125,117,108,110,120,121,123,113,108,133,117,139,124,122,122,120,124,121,149
118,120,120,122,124,123,130,126,113,121,121,121,122,121,117,118,118,120,120,121,117,120,114,124,115,121,121,122,123,122,124,124,109,121,120,121,120,118,116,92,131,122,121,122,118,121,119,153,121,121,121,122,116,124,115,109,107,119,119,121,112,116,113,103,122,122,120,121,121,119,105,99,123,120,119,120,124,122,134,152,109,122,122,123,122,123,116,97,130,121,120,122,121,125,116,144,124,121,120,121,122,116,120,119,123,119,120,122,136,118,115,106,118,122,121,123,121,123,126,114,115,120,121,121,115,115,114,109
117,119,121,121,119,121,126,128,119,122,122,121,121,120,116,111,117,120,121,122,122,121,130,148,130,122,121,122,129,119,119,119,108,119,120,121,120,126,131,113,118,123,121,120,113,121,136,117,119,120,120,122,122,120,121,83,119,124,122,123,122,129,140,174,125,119,120,122,126,125,112,109,105,120,120,120,112,117,112,78,138,121,121,121,112,123,130,188,98,119,120,121,121,119,109,87,131,122,121,122,115,121,122,96,113,120,121,122,121,121,115,99,111,121,121,122,120,120,107,100,136,120,120,121,120,123,126,134
105,120,121,121,117,115,106,73,143,125,123,124,127,129,146,209,126,118,120,121,122,116,110,98,125,123,121,122,120,123,123,123,125,122,122,123,123,122,127,122,118,120,120,120,115,120,125,120,119,120,121,123,121,120,114,138,112,122,121,122,121,122,127,127,117,121,120,123,131,119,112,97,114,120,121,122,123,121,127,149,116,119,120,122,120,122,120,125,123,123,121,121,114,118,110,121,127,123,121,121,121,119,112,97,120,123,122,123,134,120,120,140,120,122,121,123,119,126,115,103,131,120,120,121,129,126,133,153
114,124,121,122,127,124,117,100,126,120,122,122,118,121,135,129,124,122,122,123,127,121,115,144,116,122,119,121,116,121,124,107,126,120,120,121,119,120,122,140,126,122,121,123,125,124,126,115,116,119,119,120,122,121,118,113,118,121,121,122,123,125,131,138,113,122,121,121,118,118,109,118,124,120,121,122,122,123,147,136,125,120,121,122,122,121,111,142,112,121,122,123,121,121,136,109,117,122,121,122,124,117,115,118,126,121,121,121,115,122,134,122,125,121,121,122,121,122,113,130,120,120,121,122,122,119,118,136
119,122,122,121,124,120,120,115,120,121,120,121,126,121,123,125,121,121,120,122,126,117,110,105,113,122,122,123,122,121,123,124,114,119,119,121,123,118,118,107,118,121,120,122,121,120,119,147,136,122,121,121,116,117,118,121,114,119,119,122,109,118,119,111,123,122,120,121,121,117,132,129,115,120,120,122,121,122,120,114,122,123,121,121,118,118,120,128,126,122,121,122,122,122,110,118,120,120,120,121,121,118,111,96,109,121,121,122,123,124,129,110,127,120,121,121,121,122,131,136,122,124,122,123,121,122,113,131
109,120,121,123,130,121,119,98,112,119,119,119,116,117,117,125,122,121,120,122,125,124,122,129,123,124,122,122,119,119,124,129,131,121,120,121,119,121,128,136,112,121,122,124,125,121,125,114,115,120,120,121,118,114,115,147,114,123,123,123,124,126,140,91,119,120,119,120,117,120,111,94,121,123,121,123,120,122,124,142,111,121,121,121,118,123,115,99,138,121,121,121,120,121,117,131,118,120,121,121,121,122,117,117,124,121,121,122,122,120,117,114,122,121,120,121,108,121,126,108,127,124,122,122,123,120,118,116
134,124,123,123,121,122,123,147,111,119,119,119,112,117,119,104,129,122,122,122,117,123,119,128,121,121,121,122,119,120,117,119,122,121,119,120,119,119,120,113,107,120,122,121,121,116,104,63,142,125,123,123,118,122,126,132,110,118,120,121,120,118,115,112,123,120,120,121,120,118,113,90,114,122,122,122,120,125,140,123,118,123,120,121,126,122,123,86,123,121,121,121,119,118,121,119,120,122,121,122,125,120,122,129,114,121,119,120,120,119,114,113,128,122,122,122,122,124,138,124,120,122,122,122,116,120,118,106
124,121,121,122,120,123,122,137,118,124,123,125,126,122,115,93,134,121,121,122,120,122,125,131,126,123,122,122,123,120,124,132,117,121,121,121,120,117,126,149,127,121,121,121,122,118,114,122,109,121,120,122,126,120,118,103,141,121,120,120,113,119,132,134,109,122,122,122,118,118,114,94,132,123,122,123,131,120,127,139,120,121,121,122,120,119,117,116,115,120,120,122,123,122,128,121,116,122,122,123,124,120,127,99,119,121,120,122,114,121,121,134,121,122,122,123,121,122,118,118,113,121,121,123,129,119,117,105
119,121,122,123,124,122,136,126,133,123,123,123,119,118,116,98,115,122,121,122,121,119,118,107,130,122,121,122,116,124,126,139,130,124,122,123,123,125,130,151,117,122,121,121,120,119,123,123,120,124,123,123,122,124,128,131,120,124,122,122,123,119,115,106,120,120,120,121,109,119,120,132,117,122,122,122,121,123,116,130,125,120,121,122,121,122,122,112,119,122,120,121,119,120,121,106,113,120,121,122,120,117,113,106,127,121,121,121,113,121,145,135,127,122,121,121,116,121,118,122,113,122,121,120,116,118,117,126
103,122,120,120,119,119,119,117,128,122,121,122,119,118,115,120,117,119,121,122,126,127,121,107,112,120,120,120,116,117,115,113,124,123,122,123,124,125,131,109,123,120,120,121,120,121,121,146,108,120,120,121,122,117,111,119,114,120,120,121,125,121,110,102,114,121,122,123,125,125,135,141,122,121,120,120,122,114,117,114,116,121,121,121,122,122,123,126,124,122,122,124,136,126,121,106,118,123,121,122,120,123,121,120,124,124,121,121,123,123,134,146,118,119,121,121,112,117,119,103,129,123,122,122,105,120,129,99
107,121,122,122,128,115,122,101,118,120,120,121,117,117,113,108,128,123,120,121,123,123,135,160,123,122,120,121,120,121,114,104,110,120,121,122,121,119,121,107,111,122,121,123,123,124,126,107,144,122,122,123,121,118,116,108,110,123,120,121,120,120,132,125,123,120,120,121,121,125,127,116,115,120,119,120,133,118,116,104,118,121,120,121,119,121,123,148,121,123,122,122,120,121,117,76,115,121,119,120,121,122,117,111,120,121,120,120,110,118,114,110,118,120,121,122,119,121,105,101,119,120,121,121,119,121,125,118
112,121,121,122,121,122,121,116,117,122,122,121,121,118,118,110,119,121,122,123,123,129,132,124,123,123,122,121,115,121,132,140,118,122,120,120,111,113,113,113,123,123,121,121,121,115,121,143,118,120,122,122,126,121,121,117,128,122,121,121,121,118,124,122,121,122,121,122,121,121,122,114,122,122,121,121,119,117,117,114,121,121,120,120,133,119,121,121,120,122,122,122,116,120,118,106,121,122,121,121,122,124,120,108,127,121,121,122,123,123,131,132,128,122,122,123,122,123,113,117,116,121,119,121,120,121,126,118
126,121,121,121,116,118,119,125,128,123,123,126,145,128,123,118,113,121,121,121,119,120,126,105,144,121,122,123,123,124,134,155,112,120,119,122,122,121,113,111,128,122,122,123,122,121,125,133,118,120,119,121,127,126,116,127,129,127,125,125,124,121,117,113,116,119,120,121,120,119,128,117,121,121,121,121,119,113,126,136,119,121,122,122,121,120,112,131,121,121,121,122,121,122,122,112,125,122,121,121,121,115,121,108,116,122,121,121,121,120,122,134,133,121,120,120,112,116,119,116,105,121,120,120,104,121,113,109
121,123,123,123,117,128,126,120,114,118,119,120,117,118,120,119,116,121,121,121,107,121,121,104,124,121,121,122,122,122,120,131,121,122,122,123,122,119,124,118,123,121,121,122,120,122,118,125,131,121,121,121,120,121,124,123,108,122,120,122,120,122,116,114,124,122,122,123,122,122,119,116,116,121,121,122,122,118,109,114,128,121,121,122,123,122,134,152,126,125,121,121,123,123,116,108,116,117,121,122,121,120,116,96,129,119,118,120,120,122,117,137,127,123,122,122,119,117,121,85,121,124,122,123,122,122,127,135
117,120,121,123,134,120,123,101,123,123,122,125,125,127,130,139,115,124,121,122,124,127,132,135,130,123,121,122,122,121,113,109,119,121,122,123,117,120,139,147,118,121,121,122,112,120,121,117,118,122,121,122,117,123,111,119,128,121,120,121,119,118,117,122,115,122,121,122,120,128,125,127,118,120,121,122,123,121,114,93,113,121,121,122,122,124,120,115,111,120,119,120,120,120,119,98,152,126,123,123,122,125,127,174,114,121,121,122,114,120,121,112,107,119,119,121,119,119,118,100,122,121,122,122,121,126,127,128
124,121,120,122,125,118,121,127,122,121,121,123,118,121,127,111,109,122,122,123,122,126,118,121,122,123,123,128,173,125,129,128,132,123,120,122,118,116,119,99,116,118,120,121,120,127,128,136,134,124,121,122,120,119,118,119,116,121,121,123,117,119,120,108,116,122,121,122,116,112,117,111,122,120,120,122,111,120,119,124,116,119,120,120,116,122,127,131,133,125,123,123,138,118,106,95,113,121,120,120,121,116,115,123,121,124,124,125,143,122,125,119,129,120,121,121,112,118,128,142,124,123,120,121,119,117,121,112
114,119,121,122,122,123,126,119,113,122,122,123,123,121,125,108,127,121,121,122,118,118,118,132,114,122,121,122,129,123,115,100,118,121,119,120,118,119,121,135,131,122,121,123,127,121,125,138,109,121,122,123,115,123,131,120,122,122,121,122,121,118,119,130,105,120,120,121,127,119,111,88,134,124,122,122,119,122,119,121,114,122,120,121,120,114,117,121,130,121,120,120,108,118,119,117,96,119,121,122,125,118,110,124,120,123,122,123,119,120,127,160,111,120,120,121,119,120,122,99,127,120,120,121,121,122,122,122
122,120,121,122,120,112,114,112,114,120,120,122,135,122,120,118,120,120,121,123,120,122,122,116,112,120,121,122,121,116,121,120,129,124,122,124,133,140,123,128,116,122,121,123,138,117,114,132,124,121,121,122,138,118,123,110,119,121,122,123,126,120,129,130,123,120,120,121,117,128,127,141,127,124,121,122,121,117,116,119,110,119,119,122,117,128,119,118,103,120,121,122,119,115,103,115,141,123,122,122,117,125,134,121,127,121,121,121,129,118,119,127,118,121,120,121,113,120,120,134,115,123,122,124,133,116,131,101
120,118,121,122,119,116,125,127,113,122,121,120,118,129,117,110,123,121,121,121,122,124,120,134,130,125,123,123,124,131,133,119,116,122,122,122,118,117,120,128,118,119,120,123,127,117,125,142,119,119,121,121,120,120,112,90,121,123,121,121,118,121,127,130,117,119,119,121,112,119,125,136,126,123,122,122,109,126,111,101,117,121,120,120,104,117,113,108,123,119,120,120,118,118,129,131,137,124,122,123,123,129,117,155,118,120,121,121,120,121,126,127,122,119,121,122,121,120,113,124,121,124,122,123,122,118,123,129
129,122,121,122,122,122,121,121,118,117,119,120,121,124,126,132,111,125,123,123,123,115,122,107,108,120,121,122,119,117,122,115,118,122,121,122,129,119,117,98,135,123,122,124,128,129,145,178,119,120,120,120,121,119,113,113,119,122,121,121,124,125,119,110,129,125,121,121,121,123,126,152,114,120,121,121,113,119,119,111,118,122,121,122,121,120,126,111,124,121,121,123,143,120,124,124,119,121,121,122,119,118,118,117,121,123,121,121,119,125,128,117,109,123,122,123,126,123,117,135,132,123,121,122,121,122,122,118
113,118,120,121,117,119,122,115,109,121,121,124,140,122,116,96,117,119,120,121,116,120,118,85,126,123,122,123,122,124,126,127,114,119,119,120,119,117,110,88,127,121,122,122,118,120,126,140,118,122,121,121,126,120,128,117,124,122,120,121,119,118,110,133,113,121,121,124,145,122,121,113,125,120,121,122,123,121,127,158,112,122,121,122,117,117,115,111,112,119,119,120,119,123,119,99,127,122,121,121,121,119,121,126,116,121,121,122,119,115,123,103,117,119,120,121,121,122,120,143,125,122,121,123,131,126,121,138
116,121,121,122,123,121,123,113,127,122,121,123,125,129,123,134,120,121,121,122,121,121,119,95,125,120,119,120,127,123,117,94,124,124,122,122,121,120,132,166,121,121,120,121,114,124,120,111,119,119,122,123,122,114,113,125,114,121,119,120,120,122,121,119,120,121,119,120,119,119,120,141,119,120,120,121,126,121,121,96,113,118,120,122,121,124,124,128,117,121,120,121,124,120,114,115,135,123,122,122,122,119,121,123,124,122,122,123,126,118,124,138,120,123,122,122,122,125,124,111,117,123,120,121,138,121,118,100
