121,121,121,121,120,120,131,119,121,123,122,123,122,122,122,121,121,122,122,123,123,121,112,122,120,121,121,121,120,120,120,119,120,121,121,121,121,121,131,120,122,122,122,123,122,122,122,121,121,122,122,123,122,121,110,121,122,121,121,122,121,120,121,119,117,120,120,121,120,121,132,119,123,122,121,122,121,121,120,122,122,122,121,122,122,121,111,121,120,122,121,122,121,120,121,119,119,121,121,121,121,121,131,119,122,121,121,122,121,121,121,122,122,122,122,123,122,122,111,121,121,122,121,122,121,120,122,120
118,119,120,121,120,121,132,119,121,121,121,122,121,120,119,120,122,123,121,122,121,121,111,121,120,121,121,122,121,121,124,123,119,121,121,121,120,120,131,118,121,122,122,122,120,121,120,120,121,121,122,122,121,120,110,120,122,121,120,121,121,121,122,121,119,120,120,120,120,121,133,120,121,123,122,122,121,121,120,120,121,122,121,123,122,121,110,120,120,121,121,121,121,121,122,120,120,121,120,121,120,121,133,120,121,122,122,123,122,121,119,119,125,121,121,123,122,121,112,122,119,121,121,122,122,121,122,119
118,120,120,121,121,121,132,118,122,122,121,121,121,121,123,123,122,123,122,122,122,121,110,121,120,121,120,121,121,121,122,120,119,121,120,120,120,121,132,118,124,122,121,121,120,121,121,123,120,122,121,123,122,121,110,121,120,121,120,121,121,121,122,120,119,121,121,121,120,121,132,119,121,121,122,123,121,121,121,120,122,123,121,122,121,121,109,122,120,121,120,121,121,121,122,119,120,121,120,121,121,121,132,118,121,122,122,122,122,121,120,120,121,122,122,124,122,121,109,121,120,122,120,121,121,121,122,119
119,121,121,121,121,122,134,119,121,123,122,122,121,121,119,120,122,122,121,123,122,121,109,122,124,121,120,121,121,121,122,119,117,121,121,121,120,121,133,119,123,122,122,122,121,121,120,123,122,122,122,122,122,121,108,121,120,121,120,121,120,120,122,120,120,121,120,121,121,121,133,119,119,121,122,122,122,122,119,119,122,122,122,123,121,121,109,121,120,122,121,121,120,120,123,120,118,120,120,120,119,121,134,118,122,123,122,123,121,122,120,122,123,123,121,122,121,121,108,121,120,121,120,121,121,121,122,119
120,122,121,120,120,121,134,119,122,122,122,123,122,121,121,120,122,122,121,122,122,121,109,125,119,121,120,121,120,121,122,118,119,121,121,121,120,121,134,119,121,122,122,122,121,121,119,121,122,122,121,123,122,121,108,121,120,121,120,121,120,121,123,121,119,121,120,120,119,120,134,119,120,122,121,121,121,121,119,120,125,123,122,123,123,122,110,123,119,121,121,122,121,120,123,119,119,120,121,120,119,120,134,119,121,121,121,121,121,121,120,122,122,123,122,122,122,121,109,123,120,122,120,121,122,121,124,121
120,120,120,121,120,121,135,119,122,122,122,123,122,122,118,121,122,122,120,123,122,121,108,122,120,121,120,121,120,120,121,121,118,120,121,121,120,121,134,117,121,123,121,122,121,121,120,121,122,122,122,123,121,121,108,122,120,122,120,122,121,121,124,119,119,121,121,121,120,120,135,119,121,121,121,122,121,121,116,120,123,121,121,122,122,121,107,122,118,120,121,122,121,121,123,120,120,121,121,121,120,121,135,120,120,121,121,122,121,121,120,122,122,122,121,123,122,121,108,122,120,121,121,121,120,121,123,119
119,121,121,121,120,120,134,118,120,121,120,121,120,120,119,120,122,122,122,123,122,121,108,122,120,121,120,120,121,121,124,120,120,120,120,121,120,121,136,119,122,123,121,121,121,121,118,121,121,121,122,124,122,121,107,121,118,122,120,121,120,121,123,119,121,121,121,122,120,121,136,121,120,122,121,122,121,121,119,120,122,122,121,123,122,121,107,122,120,121,121,121,120,121,124,119,120,122,120,120,120,121,135,119,121,122,122,122,121,121,119,121,122,121,121,123,122,121,107,120,119,121,121,121,120,121,123,119
120,122,121,120,120,121,135,118,121,121,121,122,121,121,120,121,125,121,121,123,122,122,107,120,117,121,120,121,121,121,124,119,120,120,120,121,120,121,137,120,119,120,121,122,121,122,120,120,123,123,122,123,122,121,107,121,120,121,121,122,121,120,122,119,119,120,120,120,120,121,136,120,122,122,122,123,122,121,119,122,121,122,122,123,122,121,106,121,120,121,121,121,121,120,124,120,118,120,121,121,121,121,136,119,121,121,121,122,121,121,119,120,123,122,121,122,122,121,107,122,119,120,120,121,121,120,123,118
118,120,121,121,120,120,135,119,122,122,122,123,122,122,118,121,122,122,122,123,123,121,107,121,120,121,120,121,121,121,124,121,121,121,120,120,120,121,136,118,124,122,121,121,121,121,118,120,120,123,122,123,122,121,107,122,120,121,121,122,122,121,124,119,119,120,121,121,120,120,135,119,122,122,121,121,120,121,118,122,122,123,121,122,122,121,107,122,120,122,121,121,120,120,123,120,120,121,120,120,120,121,136,119,121,121,121,122,122,121,118,120,122,123,122,124,122,121,106,122,117,120,120,121,121,121,124,120
120,120,120,121,120,121,137,120,121,121,120,121,121,122,118,120,121,122,121,124,122,121,106,121,121,122,121,122,122,122,125,120,121,122,120,120,120,121,138,119,121,122,121,122,122,121,118,121,122,121,121,123,122,121,107,122,121,122,121,122,121,122,125,121,119,120,120,121,120,121,137,119,121,122,121,121,121,121,118,120,119,122,121,122,121,121,106,121,121,122,121,122,121,121,124,119,120,121,121,121,120,121,136,119,120,121,121,122,121,122,119,120,122,123,122,123,122,120,106,122,121,122,120,121,121,121,124,119
116,119,120,120,121,121,137,118,125,121,121,122,121,121,119,123,121,122,121,123,122,121,106,122,119,121,121,122,122,121,123,119,120,122,121,121,120,121,137,119,121,122,121,122,121,121,118,121,121,122,121,123,122,120,103,120,119,120,121,121,121,121,125,120,119,121,121,122,121,121,138,119,121,121,122,123,122,121,117,120,122,122,122,123,121,120,105,122,121,122,121,122,121,120,125,120,119,121,120,120,119,121,137,119,120,119,119,121,120,121,117,119,122,122,121,123,123,122,107,123,119,122,121,121,120,121,124,119
118,121,121,120,119,121,137,119,121,121,121,121,122,121,118,121,123,122,121,123,123,121,105,121,120,122,121,121,120,121,125,118,119,121,121,121,120,120,138,119,121,122,121,122,122,122,118,120,122,121,122,123,121,120,104,122,120,122,121,121,120,121,125,119,120,122,121,120,120,121,138,120,122,123,122,122,122,121,117,121,123,122,121,122,122,121,105,123,119,121,120,121,120,121,125,120,120,120,120,120,120,122,138,121,121,123,122,122,121,121,117,120,122,122,122,124,123,121,106,122,119,121,121,122,121,120,124,118
119,120,120,120,121,121,138,119,122,122,122,123,121,121,117,120,121,122,122,123,123,121,104,122,122,120,120,121,121,121,125,119,117,121,121,120,120,121,138,119,122,122,122,122,122,121,116,120,122,122,121,124,122,121,104,120,121,122,121,121,120,121,125,120,119,121,121,121,121,121,138,119,122,121,121,122,122,121,116,120,122,122,120,122,121,121,105,122,119,121,120,121,121,121,126,119,119,121,121,121,120,121,138,118,121,121,121,122,121,122,117,120,122,122,121,123,122,121,105,122,120,122,120,121,121,121,126,121
120,121,121,120,119,120,137,118,121,122,122,123,121,121,117,120,122,122,121,123,122,121,105,121,120,122,121,121,121,122,127,120,119,120,121,120,120,122,138,118,123,122,121,122,121,121,116,122,122,122,122,123,123,121,105,122,119,121,121,122,121,120,125,119,117,121,121,121,120,121,139,119,121,121,121,122,121,122,117,120,121,121,121,123,123,121,104,121,121,121,121,122,120,120,125,121,121,122,121,120,119,121,139,119,120,122,122,123,121,120,116,120,122,123,122,124,123,121,105,123,119,122,121,122,120,120,125,119
119,121,121,121,120,120,137,119,122,122,121,121,121,121,117,121,122,121,121,123,123,121,104,121,120,121,120,121,121,122,126,120,120,121,121,121,120,120,138,119,120,121,121,121,121,121,116,120,121,122,122,123,123,120,104,121,121,122,121,121,120,121,125,119,120,121,121,121,120,121,139,121,122,122,121,122,121,121,117,121,122,122,121,123,122,121,104,122,120,121,121,122,121,120,125,119,119,121,120,121,119,120,138,118,121,122,122,123,122,121,116,121,120,121,121,123,122,121,103,121,121,122,120,121,121,121,127,121
117,120,120,120,120,121,138,117,122,122,122,122,121,121,116,122,121,122,121,123,123,121,103,120,120,122,121,121,120,120,125,119,117,120,121,121,120,121,138,118,122,122,122,123,121,122,117,121,121,122,122,123,122,121,104,121,120,121,120,121,121,121,126,120,120,122,121,121,120,121,139,120,121,122,122,123,122,120,116,119,122,122,122,123,122,121,103,123,120,121,121,122,121,120,125,119,120,121,121,121,119,120,138,118,122,122,122,122,121,120,116,120,122,123,121,123,122,121,105,123,119,121,121,122,121,122,126,119
117,121,121,121,120,121,137,118,123,122,121,122,121,121,116,121,121,121,122,124,123,121,104,122,121,121,121,121,121,121,126,118,119,120,120,120,120,121,140,118,118,120,121,122,122,122,117,120,122,122,122,123,122,121,103,122,120,122,120,121,120,121,126,119,120,122,120,120,120,121,139,119,121,121,121,122,121,121,116,121,121,122,121,123,122,120,103,122,119,120,121,122,121,120,125,118,120,121,120,120,120,121,140,121,121,122,121,122,121,120,115,119,122,122,122,124,122,120,104,121,119,121,121,121,122,122,126,119
120,121,121,121,121,121,139,119,120,122,122,123,121,121,116,120,122,121,121,123,122,121,105,122,120,122,121,121,121,120,125,119,120,121,120,121,121,122,139,119,120,122,121,122,122,120,115,120,122,121,121,123,122,120,103,120,119,122,121,122,122,121,126,120,119,121,122,121,119,121,139,119,122,122,122,122,121,120,116,121,122,122,121,123,122,121,104,122,123,122,121,122,120,120,127,121,117,120,121,121,121,121,138,119,123,122,121,122,121,121,115,121,121,122,121,122,121,120,103,121,120,121,121,122,121,120,126,119
119,122,121,121,121,122,140,120,122,122,121,122,122,122,116,121,121,121,122,123,121,120,102,120,121,122,120,121,121,121,126,121,119,121,121,120,120,122,140,119,121,121,121,121,120,120,115,120,122,122,121,122,122,121,103,122,120,121,121,122,121,121,126,119,121,121,121,121,120,122,140,119,120,122,121,122,121,120,115,120,120,121,121,123,122,121,103,121,120,122,121,121,120,121,127,119,119,120,120,120,120,121,141,119,121,122,122,123,122,122,116,121,122,122,121,122,122,121,103,121,120,122,121,121,120,120,125,118
120,121,121,121,121,122,141,123,122,122,121,123,122,121,115,121,121,121,121,123,122,121,103,120,120,122,121,122,120,121,127,119,120,121,120,120,120,121,140,119,122,122,121,122,121,121,115,121,121,121,121,123,121,120,102,122,120,121,121,122,120,121,127,119,120,122,120,120,120,122,139,119,121,121,120,122,120,120,115,121,121,122,122,124,123,121,104,122,119,121,120,120,120,120,127,120,119,122,121,120,119,121,138,119,122,121,121,122,121,121,115,121,120,122,122,123,121,120,102,121,119,120,120,121,121,121,126,119
119,121,121,121,120,121,139,117,121,122,122,123,122,121,115,119,122,122,122,123,122,120,103,122,119,120,120,122,121,121,126,118,123,122,121,121,120,120,139,119,120,122,121,122,121,121,115,120,122,122,122,123,123,121,103,121,121,122,121,122,122,122,129,122,121,122,120,120,120,121,139,119,121,122,121,122,121,121,114,121,121,122,122,123,122,120,102,121,120,121,121,122,121,121,128,120,120,121,121,120,121,122,141,120,121,122,121,121,121,121,115,121,120,122,121,123,122,120,101,120,120,120,120,121,120,121,127,119
119,121,121,121,120,121,139,119,122,123,121,122,121,121,116,121,121,122,122,123,122,121,103,121,120,121,121,122,122,122,127,121,120,122,120,120,120,121,140,119,120,122,121,122,120,120,115,120,121,121,121,123,122,120,102,120,124,122,120,121,121,121,128,122,118,122,121,121,120,122,141,119,121,121,121,122,121,120,115,120,122,122,122,123,121,120,102,122,120,122,121,121,120,121,128,120,120,122,121,121,121,121,140,119,120,121,121,122,121,121,115,120,122,122,121,122,122,121,104,122,120,120,120,121,120,121,127,120
121,122,121,121,121,121,139,119,121,122,121,122,122,121,116,121,120,121,121,123,121,121,104,121,120,120,120,121,121,120,127,118,121,122,121,121,120,121,139,119,122,123,121,122,121,121,115,123,121,121,120,122,122,121,103,121,120,122,122,122,121,121,126,120,120,121,120,120,120,121,140,119,120,121,122,123,122,121,115,120,122,121,121,123,121,120,103,123,122,122,121,122,121,120,127,120,117,121,120,120,120,121,140,119,121,121,122,123,122,121,115,121,121,122,122,123,122,120,102,121,121,121,121,122,121,121,126,119
120,121,121,121,121,121,139,119,122,122,121,122,121,121,114,120,121,122,121,122,121,121,103,123,118,120,121,121,120,120,127,118,121,121,121,120,120,121,140,120,121,122,121,122,122,121,114,120,121,122,122,123,122,120,102,122,119,121,120,121,121,121,128,119,120,121,121,120,120,121,140,119,122,123,122,122,120,121,115,122,121,122,122,124,122,121,102,122,120,121,120,121,121,121,127,121,120,121,120,120,120,121,140,119,120,121,121,122,122,121,114,119,121,122,121,122,122,120,103,121,123,122,120,120,120,121,128,120
118,121,121,121,121,121,140,119,121,121,121,122,121,121,116,122,121,121,120,123,122,121,103,121,120,121,121,122,122,122,128,120,120,121,121,120,119,121,140,119,120,121,121,122,122,122,115,120,121,122,121,123,122,121,102,121,120,121,121,122,121,122,129,120,121,122,120,120,120,121,139,120,121,121,121,122,121,120,113,121,121,122,121,123,122,120,103,121,120,121,121,121,122,122,127,119,119,121,121,120,119,121,141,119,121,122,122,123,121,120,115,121,122,122,121,122,121,120,103,121,121,121,120,121,121,121,128,120
120,121,121,121,121,121,138,119,122,122,121,122,121,121,115,121,122,122,121,123,122,120,104,124,119,121,121,122,121,121,127,118,124,122,121,121,121,122,140,119,118,121,122,123,122,121,114,121,121,120,121,122,121,120,103,121,121,121,121,121,121,122,129,121,120,121,120,120,120,121,139,118,121,121,120,122,121,121,114,121,121,122,121,123,122,120,103,121,121,121,121,122,121,120,127,119,121,121,121,121,121,121,138,119,120,122,121,122,122,121,114,120,122,122,121,123,122,121,104,123,120,121,120,121,120,120,128,119
120,121,121,121,120,121,139,119,122,122,121,122,121,120,114,121,122,123,121,123,122,121,104,122,120,122,120,121,121,121,128,119,121,121,121,121,120,121,140,120,120,122,121,123,122,122,115,122,121,121,121,123,123,120,101,120,119,121,121,120,120,121,128,119,120,121,121,121,121,122,141,120,119,122,121,122,120,121,115,121,121,122,121,123,123,121,102,120,119,120,121,122,121,120,126,118,120,121,121,121,120,121,139,118,122,123,122,123,121,120,114,122,123,122,121,122,121,122,103,122,120,123,121,121,120,121,128,119
119,121,121,121,121,122,139,119,120,121,121,122,122,121,114,119,121,122,122,124,122,121,104,122,120,121,121,121,120,120,128,120,120,121,121,121,120,120,138,119,122,122,120,122,121,122,115,122,121,121,122,123,121,120,103,120,120,121,121,121,121,122,128,119,121,122,121,120,119,121,139,120,120,122,121,123,122,121,112,120,122,121,120,122,122,121,104,122,120,122,122,122,121,121,129,120,119,121,120,120,120,122,140,119,120,121,121,122,122,121,114,121,122,122,121,122,122,121,104,121,120,121,121,121,120,121,129,121
120,122,121,121,120,121,139,118,122,121,121,122,122,122,114,121,121,121,121,123,123,121,102,123,119,121,121,122,121,120,127,118,120,122,120,120,120,122,140,120,120,121,122,123,121,121,114,120,122,121,121,122,122,121,103,121,121,122,121,121,120,121,129,120,119,121,121,121,121,122,139,119,121,121,122,122,121,121,115,121,121,122,121,122,122,120,103,121,120,122,120,120,120,121,127,119,121,122,121,120,120,122,141,121,122,122,121,123,122,121,114,121,122,121,120,123,122,121,104,121,117,120,120,121,121,121,129,120
122,121,121,121,121,122,140,120,122,122,121,123,122,121,114,121,121,122,122,123,122,120,102,121,121,122,121,121,120,121,130,122,120,122,121,121,120,121,140,119,121,120,121,122,121,121,113,120,121,122,121,123,122,120,103,121,118,121,120,121,121,121,129,119,122,121,120,120,120,122,140,121,120,121,121,122,122,122,116,122,121,122,121,122,121,120,102,121,120,121,121,121,120,120,128,120,121,120,120,120,120,121,139,119,120,122,121,122,120,120,113,119,122,122,121,122,122,120,103,121,118,120,121,121,121,121,128,118
121,121,121,120,120,122,140,122,121,122,121,123,122,121,115,120,121,122,121,122,121,120,103,121,119,121,121,122,121,121,128,119,120,121,121,121,120,121,139,119,124,122,122,122,121,121,115,123,119,121,121,123,121,119,103,120,119,119,120,121,121,121,129,119,121,122,121,121,121,123,141,123,121,122,122,122,121,121,114,121,121,122,121,123,122,121,104,121,120,121,121,121,121,121,129,120,121,122,121,121,121,121,139,119,122,122,120,122,121,121,114,121,121,122,121,123,122,121,103,120,120,122,121,120,120,121,128,120
121,122,121,120,120,122,139,120,121,122,122,123,121,120,114,121,121,121,121,122,121,120,103,120,120,122,120,121,121,121,129,120,121,122,122,121,120,121,139,122,121,121,121,122,121,121,114,121,121,121,121,123,123,120,103,120,120,121,121,121,121,121,129,119,121,121,121,121,121,121,138,119,121,121,121,123,122,121,114,121,120,121,121,122,121,120,103,119,121,122,121,121,121,122,132,124,122,122,121,120,119,121,138,119,119,121,122,123,121,120,113,121,122,122,121,123,122,120,104,121,121,122,121,122,121,121,129,120
121,122,121,120,119,121,138,120,121,121,121,122,121,121,115,121,120,120,121,123,122,120,102,119,118,121,120,121,121,121,129,120,123,122,122,121,120,121,138,120,120,121,120,122,121,121,114,121,122,122,121,122,121,120,104,121,120,121,120,121,121,121,128,120,119,121,121,121,121,122,138,118,121,121,121,123,122,121,113,121,122,122,122,122,121,121,104,122,119,121,120,120,120,121,128,118,120,122,121,121,121,121,138,120,122,122,122,122,121,121,115,121,121,122,121,122,121,120,104,121,120,121,120,121,120,121,128,120
120,122,121,121,121,122,139,119,121,122,121,122,121,121,114,121,125,122,122,123,122,120,104,122,118,122,121,121,121,121,129,120,121,121,121,121,120,121,137,119,121,121,120,122,121,121,114,121,120,122,121,123,122,120,104,121,120,121,120,121,121,121,128,120,117,121,121,121,121,122,138,119,124,122,121,122,122,121,114,121,119,120,121,123,122,121,104,120,120,122,121,121,120,122,132,123,121,122,122,121,120,122,138,119,121,123,122,122,122,121,114,121,120,121,121,123,122,121,103,119,119,121,121,121,121,121,129,120
120,121,121,121,121,122,138,120,120,122,122,123,122,121,113,121,120,121,121,123,122,120,104,121,121,122,122,121,121,121,129,120,120,121,121,121,121,122,139,121,121,121,120,122,121,121,115,122,120,122,121,123,122,120,104,120,119,121,121,122,121,121,128,119,119,122,121,120,120,121,138,120,121,121,120,122,121,121,113,119,122,122,121,123,122,120,107,125,120,122,121,121,121,121,129,119,121,121,120,120,120,122,139,120,120,121,120,122,121,121,114,120,121,122,121,123,121,120,104,121,120,122,121,121,120,120,129,120
121,122,121,121,121,121,138,121,121,122,122,122,120,120,113,121,120,121,121,122,121,120,104,120,121,121,120,121,121,121,129,120,122,122,121,120,120,122,140,123,121,122,121,122,121,121,114,120,121,121,121,122,121,120,103,120,120,122,121,121,120,121,128,120,121,122,121,121,121,122,139,120,122,122,121,123,122,121,112,121,123,122,120,122,121,120,105,121,118,121,121,122,121,122,130,120,122,123,121,120,120,122,139,121,122,122,121,122,121,121,114,121,121,122,121,122,121,120,105,121,119,121,121,122,122,121,128,120
121,121,121,121,120,122,137,120,121,121,121,122,122,121,114,121,121,121,121,123,122,120,104,120,119,121,121,122,122,121,127,119,120,121,120,121,120,122,138,118,121,121,121,122,122,121,114,122,119,120,121,122,122,121,103,119,120,122,120,120,120,121,129,120,120,121,121,121,121,122,138,120,120,121,121,122,122,121,114,121,121,122,120,121,121,120,105,121,120,120,120,121,121,121,130,121,121,123,122,122,121,122,137,120,121,120,121,122,122,121,115,120,121,122,121,122,121,120,104,120,120,121,121,121,121,122,129,120
122,122,122,122,121,121,138,122,121,121,121,123,122,122,116,121,119,121,120,122,121,121,106,124,122,121,121,121,120,120,128,119,119,121,121,121,120,121,137,119,120,121,120,122,121,121,114,120,121,121,121,122,122,121,105,123,121,122,120,121,121,121,130,120,120,122,122,121,119,121,137,119,121,122,122,122,121,120,113,121,121,121,120,122,121,120,105,121,120,122,121,121,120,121,129,120,120,122,121,121,121,122,137,120,121,122,122,123,122,121,114,122,120,121,121,123,122,120,106,120,120,121,120,121,121,121,128,119
119,121,121,121,121,122,136,120,120,122,121,123,121,120,113,120,120,121,120,123,122,121,106,120,120,122,121,122,121,121,129,120,120,121,121,121,121,121,136,119,121,121,121,123,122,122,115,121,125,120,121,123,122,120,105,120,116,121,121,122,121,121,130,120,122,122,122,122,120,121,136,119,121,122,121,123,122,121,113,123,122,121,121,123,123,121,106,121,120,121,121,121,121,121,129,120,120,121,121,122,120,121,136,119,121,121,120,122,122,121,113,122,119,120,121,123,122,120,105,119,121,122,120,121,121,121,128,121
122,123,121,121,121,123,138,125,122,122,121,121,121,121,114,121,120,122,121,122,121,120,106,121,120,121,122,122,120,121,130,121,121,122,121,121,121,121,136,119,122,122,120,122,121,121,115,121,120,121,121,123,121,120,106,120,120,122,122,122,121,122,129,120,119,121,121,121,121,122,136,119,121,121,121,122,121,121,115,123,121,121,121,123,122,120,105,119,120,122,121,121,120,121,129,119,124,122,121,121,120,121,136,121,119,122,122,122,121,120,113,120,121,121,121,123,122,121,105,120,120,121,121,121,121,122,130,121
121,122,121,121,121,121,138,121,121,122,121,122,121,121,113,120,121,121,120,122,121,120,105,121,121,122,121,121,121,121,131,122,120,122,122,122,120,122,137,120,121,122,121,122,121,120,112,120,121,121,121,123,122,120,106,120,120,122,121,121,121,121,129,120,121,122,122,122,120,121,136,120,121,121,121,122,122,121,114,123,123,121,120,122,121,121,107,121,120,122,122,121,120,121,128,119,119,120,121,121,120,121,136,119,121,121,121,122,122,121,116,121,120,121,120,122,122,121,108,120,120,122,122,122,121,121,128,120
120,122,121,122,121,121,135,119,120,121,121,123,122,121,113,119,124,121,121,121,121,120,106,120,118,121,121,121,121,121,129,120,121,122,120,121,121,121,135,119,122,121,121,123,122,122,113,121,120,121,120,122,122,121,107,120,120,122,122,122,121,121,129,121,121,122,122,121,120,121,135,120,121,121,122,123,122,122,114,121,119,121,121,123,121,120,106,120,121,122,121,121,120,121,129,120,122,123,122,122,120,121,135,120,121,122,122,122,121,121,114,123,120,119,120,122,122,121,106,119,120,122,120,120,119,120,130,121
121,122,122,122,121,122,134,119,121,122,122,123,121,120,113,121,121,122,120,122,121,121,108,121,120,122,122,121,120,121,128,119,121,122,121,121,120,122,136,122,120,121,120,122,122,121,113,120,123,121,121,123,123,122,108,121,119,121,121,121,120,121,129,122,122,121,121,121,121,122,137,120,121,122,121,122,122,120,112,120,120,121,121,123,122,120,106,120,121,122,121,121,121,122,130,121,121,122,121,120,120,122,136,120,122,123,122,122,121,120,113,121,120,121,121,122,121,120,109,121,120,122,121,122,121,121,129,119
123,121,120,121,121,122,137,123,120,121,121,123,122,121,113,120,121,122,121,123,122,120,108,121,121,122,121,122,121,122,129,119,121,122,121,121,120,122,135,121,122,121,121,123,122,120,112,121,120,121,121,122,121,119,108,120,120,120,120,121,120,121,128,120,121,123,121,121,120,122,134,119,121,121,121,123,121,120,113,120,120,122,122,122,121,120,108,120,121,121,121,121,120,120,129,120,120,121,121,121,121,122,134,120,120,121,121,123,122,121,113,119,120,121,120,121,121,120,109,122,120,121,120,121,120,121,129,120
121,122,121,122,121,122,135,119,122,122,121,122,121,121,113,120,121,121,121,122,121,120,109,122,120,121,121,122,121,121,128,119,121,122,122,122,122,122,134,121,120,122,121,122,122,121,114,120,120,121,120,121,121,120,109,121,121,122,121,121,120,121,127,119,121,121,120,121,120,121,134,120,121,121,121,122,121,121,114,121,120,121,121,123,122,121,109,119,122,121,121,122,121,122,130,121,121,122,121,121,120,121,133,120,120,122,121,122,121,121,113,121,121,122,120,122,121,120,108,120,119,121,121,122,121,121,129,119
121,122,121,121,121,122,134,120,121,121,122,123,122,122,114,120,120,121,121,122,121,120,109,120,120,121,120,121,121,121,130,120,122,122,121,121,120,121,134,121,122,122,122,122,122,121,114,123,120,121,121,122,121,120,109,119,120,121,120,121,121,121,128,119,123,122,121,121,121,123,135,124,120,121,121,121,120,120,113,120,120,122,121,123,122,120,110,120,120,121,121,121,121,121,128,119,122,122,122,122,122,122,134,121,119,121,121,122,121,120,113,120,122,121,120,123,122,121,110,119,120,122,121,122,121,121,128,120
120,122,122,122,120,121,133,120,120,121,122,122,121,120,114,120,121,122,120,122,122,120,110,120,120,121,121,121,121,121,129,120,120,121,122,121,121,122,133,119,120,122,122,122,121,121,113,119,121,121,120,121,121,120,111,122,121,122,121,121,120,120,129,120,121,122,121,121,120,121,133,119,121,122,121,123,121,120,113,121,119,121,120,121,120,120,108,119,120,123,121,121,121,122,130,120,121,122,122,121,120,121,132,120,122,122,121,123,121,120,113,121,119,121,121,122,121,120,110,120,120,121,121,122,121,121,129,119
121,122,121,121,120,122,133,120,123,122,120,122,121,121,115,122,117,120,120,122,122,120,109,118,121,121,121,122,121,120,128,119,120,121,121,122,121,122,133,121,121,121,120,122,122,121,115,122,120,121,121,123,122,120,109,119,120,121,121,122,121,121,128,119,122,122,122,122,120,121,131,120,121,122,121,122,121,121,114,121,119,121,121,122,120,120,110,119,120,122,121,121,120,120,129,120,123,122,122,122,121,121,130,120,118,121,121,123,121,120,114,120,122,121,120,121,121,121,111,121,121,121,121,122,121,122,129,121
122,123,122,122,121,122,132,121,122,122,122,122,121,120,112,120,119,121,121,123,122,120,112,122,121,122,121,122,121,121,127,119,122,123,122,122,120,122,131,123,121,121,121,122,121,121,113,121,117,121,121,122,122,120,110,119,122,121,120,122,121,121,129,121,121,122,122,122,120,121,130,121,121,121,121,122,121,119,113,120,119,120,120,122,121,120,112,121,121,122,122,122,121,121,129,119,122,122,122,122,121,122,131,121,120,122,121,123,121,120,113,120,120,121,121,122,121,121,112,121,120,122,121,121,120,120,128,120
122,123,121,121,120,122,131,121,121,122,122,123,122,121,114,121,119,120,120,122,122,121,113,120,120,121,121,121,120,121,128,118,122,122,122,121,120,121,131,121,119,122,122,123,122,121,115,121,121,121,121,123,121,120,110,118,120,121,121,121,120,120,128,120,121,122,122,123,121,121,130,120,121,121,121,121,121,120,114,121,121,121,121,123,122,121,111,119,122,122,122,121,120,121,131,123,120,122,122,121,120,121,130,119,123,123,121,122,121,121,114,121,120,121,121,122,122,121,115,122,120,122,122,121,120,121,127,119
121,122,122,122,120,121,130,120,121,122,121,123,122,121,113,120,119,120,121,122,121,120,113,120,120,122,121,121,120,121,129,119,122,123,122,122,121,121,129,122,122,121,122,122,121,120,114,121,120,121,119,121,121,121,115,121,120,122,120,120,120,121,128,119,121,122,121,122,121,122,128,121,124,121,121,121,121,121,113,119,118,121,121,122,122,121,115,123,121,122,122,121,121,121,130,119,122,122,121,122,121,122,129,120,121,122,121,123,122,121,113,121,119,120,121,121,121,120,113,120,120,122,120,120,120,120,129,119
123,123,122,122,121,122,127,123,120,121,120,121,121,120,112,118,121,122,121,121,121,121,114,125,121,122,121,121,121,121,129,120,122,123,122,122,120,121,129,120,122,121,121,122,121,121,114,121,119,120,120,121,120,120,114,120,120,122,121,121,120,121,129,119,121,122,122,122,121,122,128,120,121,121,121,122,121,121,113,120,119,121,120,122,122,121,110,119,121,121,121,121,120,121,129,121,121,122,122,122,121,121,128,120,122,122,122,122,121,121,121,124,118,120,121,120,120,118,106,116,122,122,122,122,121,116,135,125
124,123,122,123,123,132,136,127,118,120,121,122,121,116,110,116,122,121,121,123,122,122,108,125,119,121,121,121,118,118,136,116,122,123,121,122,123,124,131,125,119,122,120,121,121,122,116,119,119,120,120,121,121,117,113,119,121,121,120,121,121,122,130,120,122,122,121,121,120,121,128,120,121,122,122,123,122,120,113,121,119,121,121,122,120,119,113,120,121,122,122,122,121,121,131,120,123,122,122,121,121,122,129,121,121,122,121,123,122,121,113,121,119,120,120,121,121,120,115,120,120,121,120,120,120,121,130,120
122,123,121,121,121,121,128,120,120,122,121,123,122,121,112,120,119,121,120,121,120,120,113,120,120,121,121,122,121,121,129,119,122,122,121,121,121,122,128,119,119,121,121,122,121,121,113,119,120,121,120,122,122,121,116,119,120,120,120,121,121,121,130,120,121,121,121,122,121,122,128,120,120,122,121,122,121,121,113,121,119,120,121,122,122,121,114,119,121,122,121,122,121,124,131,120,122,123,122,122,120,117,126,120,120,121,121,122,121,120,112,119,119,121,120,122,122,122,110,118,120,122,121,122,122,125,133,117
121,123,122,122,121,124,126,120,121,121,120,122,122,120,113,120,120,121,120,121,121,119,113,121,121,122,121,121,121,121,130,119,120,121,121,122,121,122,128,120,123,122,121,123,121,120,113,121,117,121,121,122,121,120,115,120,120,121,120,121,120,121,129,120,121,122,121,121,121,122,128,121,121,122,122,122,121,120,111,119,119,120,121,122,121,120,117,122,121,121,121,121,121,121,129,121,122,122,122,122,121,120,127,120,120,121,121,122,121,121,111,120,120,120,120,122,121,121,111,120,120,122,121,121,120,121,127,119
121,122,121,122,121,121,124,119,121,122,121,122,121,119,113,120,121,121,121,121,120,120,116,120,120,121,120,121,120,126,135,117,121,122,121,121,120,122,131,124,121,120,120,121,121,118,111,119,119,121,121,122,122,121,109,119,118,122,122,121,118,120,133,116,124,122,122,122,122,122,128,124,119,120,121,123,122,121,111,118,117,119,119,121,121,118,119,119,121,120,120,122,121,121,135,119,123,123,122,122,120,123,128,123,121,122,122,122,121,117,109,121,118,121,121,121,120,118,109,116,122,121,121,121,121,121,132,124
122,122,122,123,121,123,128,122,121,121,120,121,122,119,110,120,120,122,121,122,121,126,123,120,120,122,121,121,120,117,134,118,120,121,121,121,122,127,132,120,120,120,120,121,121,119,107,117,116,122,121,120,116,117,104,113,123,122,121,121,115,119,135,125,120,121,121,122,122,124,164,119,119,121,120,122,123,116,84,113,119,122,120,121,118,118,99,115,121,122,122,124,120,122,134,122,121,122,120,117,114,122,141,119,120,123,125,132,135,127,116,122,120,119,118,117,126,113,109,117,117,119,116,111,113,117,157,113
119,122,120,112,120,123,128,116,127,126,126,139,152,121,62,135,118,121,128,139,156,121,54,116,120,123,119,116,82,112,139,115,121,121,120,121,127,115,241,115,122,121,119,112,120,118,0,127,122,121,120,120,127,118,0,120,117,120,120,119,119,120,0,120,119,121,121,121,120,121,240,116,126,125,132,135,127,124,8,122,122,126,123,136,128,126,0,125,125,126,131,131,137,134,0,139,123,124,119,115,111,105,241,120,116,115,104,117,134,119,72,118,118,126,132,154,69,120,0,111,125,116,128,97,134,123,0,123
125,123,99,116,88,131,241,131,118,124,141,110,88,109,82,117,117,111,96,91,102,110,0,117,118,114,106,108,115,120,0,116,124,129,141,143,141,114,240,126,123,122,128,120,121,119,153,116,118,120,115,122,133,124,0,121,122,122,92,112,119,127,0,128,116,123,162,127,113,120,242,109,122,122,93,120,125,124,141,107,123,123,119,124,119,118,0,132,123,117,121,122,122,126,0,125,120,121,121,120,120,121,241,117,121,121,123,123,123,117,139,118,122,124,136,125,120,132,0,131,123,124,117,129,124,121,0,125
122,124,122,124,119,109,241,118,121,120,119,121,121,130,176,119,117,120,122,120,119,116,0,114,125,117,71,109,120,122,0,131,128,133,176,137,131,126,242,134,116,120,110,118,111,117,126,109,120,118,106,114,118,118,0,119,118,115,106,118,116,123,0,118,119,119,117,117,119,122,241,108,120,123,143,124,120,116,106,131,123,123,119,123,125,115,0,129,118,120,115,122,115,114,0,123,120,120,106,114,120,118,240,117,123,121,97,114,103,107,163,130,117,119,120,114,118,119,0,118,122,121,137,128,122,118,0,126
125,124,102,115,123,124,241,121,120,111,93,114,127,122,177,131,117,129,141,126,118,119,0,114,120,118,123,118,122,123,0,107,133,122,119,117,119,116,242,153,125,123,155,128,120,131,136,121,123,132,171,137,132,134,0,122,118,122,113,118,120,105,0,120,118,118,106,116,119,122,242,100,125,118,127,127,129,133,159,135,120,121,124,122,118,118,0,120,120,125,138,121,118,116,0,105,124,112,94,118,122,127,242,154,122,117,151,131,123,125,149,116,113,104,116,112,119,118,0,119,114,98,126,120,115,120,0,105
130,95,126,122,117,121,240,131,119,110,143,133,129,124,152,109,122,116,110,110,120,119,0,176,127,111,128,123,120,116,0,106,125,110,122,122,128,120,242,153,122,127,131,123,130,130,104,114,122,123,106,117,117,120,0,119,113,126,118,113,115,118,0,135,123,144,88,125,139,129,241,122,123,134,124,122,125,124,105,116,121,126,131,130,126,105,0,132,124,148,106,119,115,128,0,116,130,123,108,118,119,122,242,159,119,109,120,129,128,117,133,117,119,130,123,125,121,120,0,125,120,141,87,125,129,134,0,117
120,126,94,113,122,124,241,105,123,120,99,110,123,128,128,133,121,124,178,147,122,119,0,111,123,128,114,109,117,119,0,119,126,112,110,119,120,122,241,119,116,84,105,112,120,122,123,123,116,123,180,135,118,123,0,104,121,124,115,123,123,120,0,120,124,122,116,126,121,123,241,135,121,105,120,123,117,123,113,103,120,119,97,110,127,141,0,133,123,126,113,119,116,120,3,135,124,110,129,123,120,108,242,135,128,56,114,122,123,124,101,141,127,84,113,118,131,135,0,142,119,147,118,121,107,129,6,117
118,128,116,124,125,135,241,105,125,29,120,118,120,119,92,130,111,0,142,119,111,117,0,140,119,0,178,145,127,136,15,108,118,0,138,119,116,101,242,118,119,0,97,115,132,124,93,110,125,0,118,120,123,120,0,117,123,0,147,132,114,121,21,117,123,0,128,115,112,127,241,149,124,17,132,126,119,118,96,98,125,60,116,115,122,130,0,151,116,85,111,120,111,113,26,92,123,100,131,123,108,116,241,183,118,109,102,118,120,106,56,118,116,242,137,127,131,114,0,132,118,242,97,112,104,126,35,106
122,241,105,118,138,116,240,114,120,242,121,118,112,145,36,125,119,241,134,116,111,33,0,114,117,241,90,102,135,124,52,115,126,242,166,139,116,94,241,127,119,242,130,131,143,140,35,149,117,241,116,117,125,122,6,107,122,242,122,124,114,110,59,118,118,167,128,129,120,117,241,122,122,25,139,128,116,124,72,119,122,22,115,123,122,119,0,116,121,76,135,125,122,121,48,127,124,50,127,117,118,120,241,109,120,34,112,116,116,119,53,133,108,67,152,129,120,121,0,131,112,124,139,129,120,124,44,95
119,110,125,122,122,113,240,108,127,60,124,119,115,114,22,125,120,57,115,117,118,122,0,115,113,140,123,123,120,116,54,111,121,107,144,125,122,130,241,110,122,43,144,136,145,121,33,125,119,99,102,115,112,136,0,122,119,135,147,128,122,112,54,112,117,138,86,116,138,74,242,133,123,82,119,116,118,108,42,126,126,98,123,127,120,149,0,94,125,146,110,131,125,137,50,151,120,142,142,137,125,131,241,114,116,90,130,133,118,118,19,121,117,107,117,128,117,120,3,125,122,180,124,119,119,123,57,140
119,158,135,124,114,119,241,114,123,81,115,124,124,123,26,118,118,87,124,122,131,124,0,120,121,145,114,121,118,121,53,115,120,126,119,121,123,122,242,133,125,83,120,120,121,120,0,123,118,102,134,129,121,124,4,113,122,164,109,118,116,121,58,128,112,151,114,120,130,122,242,108,126,47,86,106,126,120,1,142,112,87,138,127,122,122,15,124,119,162,112,111,94,132,64,116,126,143,119,123,115,124,240,119,121,71,116,114,121,122,12,139,120,92,123,123,124,117,13,117,118,164,112,115,114,119,64,120
122,148,132,117,122,116,242,120,124,86,132,122,116,119,0,115,117,108,142,131,121,128,19,134,121,168,118,117,123,120,68,132,121,138,112,119,119,132,241,119,122,80,123,122,120,120,0,120,116,93,127,123,123,126,17,119,119,148,110,115,118,127,66,110,122,93,126,124,134,109,241,110,124,0,113,119,135,123,0,145,124,0,144,129,118,106,34,130,113,0,125,123,127,139,75,98,122,0,120,119,127,121,241,116,121,0,133,117,123,121,0,127,118,0,107,117,117,123,41,111,121,0,80,105,122,131,79,134
120,0,142,131,119,140,240,115,123,16,119,131,119,120,0,124,119,241,114,116,120,120,42,121,117,241,111,110,121,117,79,108,116,241,129,134,122,121,242,117,122,242,113,117,119,129,0,137,116,242,114,126,124,125,35,116,117,241,119,119,119,115,76,108,121,242,116,113,111,121,241,128,117,59,190,144,111,103,0,118,119,0,110,115,119,118,33,110,121,0,117,117,121,125,75,113,121,0,123,121,121,122,242,117,123,0,117,128,117,120,0,150,117,0,114,118,115,124,41,113,121,0,118,117,117,152,80,120
119,0,134,117,115,120,240,120,119,6,147,129,113,119,0,116,119,54,104,113,113,142,40,117,116,83,135,118,132,112,91,117,117,99,115,117,115,122,240,115,126,107,139,129,127,119,0,131,121,113,115,120,128,125,29,156,120,117,118,122,127,126,87,111,122,118,121,125,118,129,240,117,113,119,110,115,121,122,0,111,118,120,117,120,121,121,25,119,123,120,134,116,113,119,70,125,118,120,108,119,128,123,241,104,120,120,116,119,115,122,0,148,126,121,120,117,118,123,41,122,119,121,121,118,117,122,83,130
119,120,132,121,117,110,242,123,124,121,134,137,122,113,0,128,116,121,118,122,126,118,32,121,115,121,145,128,120,123,89,103,121,122,109,119,119,119,242,118,123,121,119,119,116,144,0,124,118,120,122,119,118,110,38,121,119,121,117,116,123,121,99,121,118,121,120,116,117,122,241,124,122,121,100,119,120,120,0,115,119,121,106,129,126,77,29,121,121,121,111,114,121,120,101,122,109,121,127,117,115,115,242,100,121,121,121,124,123,123,0,119,127,121,124,120,110,120,36,132,116,121,124,124,117,117,93,110
119,121,113,116,112,112,241,122,128,122,119,128,138,127,0,128,118,121,160,138,130,133,40,120,123,121,91,113,126,121,123,125,119,121,118,126,120,123,241,130,122,122,113,126,123,110,0,117,125,121,115,119,123,119,35,112,119,121,125,115,125,122,97,129,116,121,158,145,127,133,240,111,119,120,111,111,117,121,0,121,121,121,115,121,117,89,43,110,125,121,128,127,111,110,112,138,122,121,142,123,122,123,241,106,123,121,105,124,121,121,0,136,119,121,80,115,123,130,43,124,117,121,132,119,120,116,127,136
121,121,119,115,128,116,241,116,117,121,163,140,121,118,0,106,131,120,136,126,138,121,39,127,111,122,136,114,115,101,138,135,124,122,116,117,109,137,241,110,117,121,112,120,120,115,0,120,125,122,122,122,122,115,45,111,120,121,126,116,119,133,129,129,117,121,119,135,131,110,242,113,122,121,118,120,120,120,0,124,123,121,119,114,115,128,43,107,123,122,122,124,125,126,149,147,116,121,110,115,120,118,241,111,121,121,140,128,121,149,0,122,123,120,124,118,120,117,40,122,121,122,107,118,112,109,144,122
112,122,122,117,117,119,241,119,119,121,115,122,123,124,0,121,122,121,118,121,119,115,44,118,118,121,110,119,111,131,152,110,129,121,123,127,121,127,240,142,115,122,100,115,119,108,0,121,118,122,128,117,122,81,34,114,118,121,135,122,108,125,152,112,119,121,113,121,124,119,242,120,119,122,114,119,130,110,0,121,118,122,112,117,111,121,43,113,120,122,135,124,129,122,175,112,120,121,113,134,115,128,243,120,122,122,125,120,116,111,0,122,119,121,117,121,121,122,44,123,120,122,109,115,116,123,176,120
112,122,131,129,121,123,242,111,123,120,104,114,122,118,0,122,122,122,134,122,118,114,42,111,128,121,119,130,118,132,171,151,117,122,122,120,129,146,241,120,119,121,119,120,119,84,0,120,123,121,106,119,138,124,45,120,124,120,155,128,125,140,196,144,118,121,123,121,119,129,240,117,125,121,105,122,121,119,0,118,121,121,130,126,116,133,32,130,114,121,126,113,94,101,221,106,127,121,160,131,125,124,241,142,121,121,125,130,126,112,0,122,122,122,116,116,118,121,24,128,124,121,124,123,114,131,213,124
121,121,125,121,120,125,241,111,118,122,121,129,127,127,0,126,123,121,117,118,126,114,20,122,123,121,122,123,125,124,210,117,121,121,122,120,121,128,240,129,121,122,119,127,122,128,0,125,117,121,131,130,116,113,34,117,120,121,119,117,123,137,225,115,126,121,134,127,117,126,241,121,123,122,109,116,120,134,0,135,122,121,153,136,127,106,28,132,114,122,120,120,118,121,206,105,124,122,108,113,117,115,242,118,121,121,130,127,123,121,0,132,122,121,99,111,122,122,41,121,120,122,131,125,119,119,236,124
123,121,124,113,121,124,242,115,122,122,129,135,124,118,0,122,120,122,125,120,136,112,42,114,126,120,106,111,118,107,218,126,122,122,139,132,128,125,241,124,121,122,116,120,103,99,0,130,121,121,120,120,138,132,46,118,123,122,109,119,129,111,228,115,114,121,115,119,119,127,242,115,123,121,123,122,123,118,0,121,123,121,118,121,118,124,49,121,112,122,118,116,98,120,237,98,121,122,136,130,132,109,241,123,125,121,128,120,115,119,0,104,116,121,95,116,123,119,48,124,118,122,117,124,124,140,237,111
127,115,131,120,120,110,241,123,124,118,119,130,124,94,0,123,119,119,125,118,116,132,51,122,121,121,104,125,127,134,242,117,117,121,118,117,115,116,241,109,122,120,137,123,121,131,0,136,116,121,115,119,120,115,37,118,122,121,116,113,119,127,242,117,123,122,125,121,128,123,242,122,124,120,128,130,135,116,0,118,119,121,104,118,104,107,33,128,118,121,118,121,121,103,241,115,124,122,120,125,107,120,242,113,122,122,105,114,121,120,0,158,113,122,136,124,126,113,39,99,117,122,116,118,121,133,241,123
124,110,125,123,123,118,240,108,123,111,135,125,121,120,0,137,119,117,115,121,104,67,44,126,117,119,110,116,117,119,240,115,123,117,125,118,127,139,242,120,118,120,129,123,118,123,0,123,123,120,103,119,125,105,34,130,121,120,119,118,113,137,241,116,118,116,101,123,126,130,240,111,122,120,115,120,123,122,0,127,121,120,144,124,117,122,26,121,121,121,76,106,121,115,241,123,119,117,122,125,124,126,242,123,124,119,126,123,133,127,0,113,122,121,117,120,127,109,26,143,119,171,119,118,119,127,242,100
120,150,126,124,125,127,240,119,122,75,112,119,122,116,0,114,124,99,119,112,85,90,43,144,112,181,139,131,126,122,241,98,122,128,125,127,117,119,241,121,122,75,119,118,121,123,0,115,121,100,120,122,106,92,46,120,119,177,138,123,122,117,240,117,122,117,124,126,122,125,241,122,121,86,105,119,119,120,0,120,122,105,116,119,125,123,44,121,115,151,117,118,123,113,241,99,120,116,123,135,122,126,241,120,121,96,120,119,126,121,0,120,121,110,123,120,119,119,38,115,121,203,118,117,119,125,241,128
126,150,138,128,123,122,240,134,113,49,111,122,119,118,0,116,119,82,108,115,123,116,44,119,123,211,109,126,120,121,241,121,123,163,136,123,113,121,242,120,118,37,125,128,123,127,0,121,117,79,124,124,115,115,41,119,122,173,118,124,128,132,243,113,122,127,120,122,120,123,242,120,124,76,119,121,122,120,0,125,120,100,120,119,118,119,35,122,118,185,123,122,136,126,242,117,125,161,127,123,119,125,240,119,115,106,121,124,122,144,0,112,122,167,117,119,128,117,41,119,123,242,119,121,129,98,242,117
123,202,136,126,129,123,240,118,123,17,118,121,118,124,0,129,111,105,122,119,123,120,40,103,124,242,111,117,117,116,241,134,126,242,118,123,121,134,241,111,118,241,114,122,118,144,0,129,123,241,129,126,126,133,44,117,119,242,123,121,115,130,241,116,123,242,115,120,125,112,182,119,119,242,117,123,124,121,26,118,119,157,122,118,141,123,73,119,118,131,115,121,116,122,241,119,120,125,115,122,125,116,187,125,122,123,116,118,113,111,31,117,124,123,116,127,129,115,76,127,119,122,122,118,113,127,240,114
119,122,117,126,124,123,214,127,122,122,124,123,115,136,14,122,123,121,129,115,117,128,67,117,114,122,115,114,116,120,242,113,121,122,126,123,120,119,239,114,120,122,116,121,117,117,0,129,119,121,114,112,122,121,50,112,117,122,135,120,117,145,240,120,116,121,113,126,122,122,241,108,119,122,122,124,129,127,0,120,124,122,122,116,128,115,24,123,120,122,122,118,107,118,241,114,121,122,121,120,122,115,241,133,120,122,123,128,120,124,0,115,115,121,116,115,114,117,20,133,124,122,115,125,120,122,241,123
117,121,119,120,105,110,241,105,121,121,120,121,121,119,0,126,120,121,121,124,121,141,27,124,118,121,105,113,126,96,241,116,121,122,123,128,120,125,241,111,124,122,119,115,117,120,0,141,117,122,130,122,127,107,27,117,122,121,125,133,121,126,242,116,119,121,136,119,116,107,242,119,119,122,115,116,115,121,0,125,118,122,112,122,124,123,21,130,125,121,124,124,117,121,241,113,122,122,102,119,124,127,240,126,122,121,121,122,124,120,0,109,117,121,107,121,120,117,19,131,122,121,128,117,114,124,242,116
124,121,125,122,115,124,235,126,122,122,135,124,119,117,0,118,123,122,135,120,114,114,33,129,116,122,113,117,121,133,242,112,122,122,123,124,141,124,241,126,120,121,115,122,131,114,0,126,120,122,113,118,121,145,24,119,120,121,129,126,122,121,241,115,123,121,120,123,125,116,242,123,120,122,116,124,122,123,0,109,117,122,121,114,117,119,32,152,122,122,131,123,119,128,241,112,121,121,133,131,128,117,240,114,121,122,114,125,119,119,0,128,118,122,125,122,129,125,19,117,120,122,115,119,115,122,240,117
117,121,121,127,119,120,240,115,122,121,133,133,114,119,0,124,125,121,113,113,130,106,22,130,123,121,118,120,114,121,242,127,112,122,146,139,128,132,242,109,121,121,110,119,126,99,0,116,124,122,127,122,127,120,16,125,119,121,124,123,127,115,242,112,121,122,116,118,119,120,242,116,122,121,127,120,121,113,0,131,117,121,123,125,121,121,28,121,119,122,119,122,119,120,241,126,119,121,122,119,121,115,234,109,123,54,92,121,136,124,0,140,119,102,115,121,127,123,32,118,118,123,124,122,118,118,241,107
122,76,131,126,128,128,235,117,124,61,118,123,124,131,0,121,119,112,114,121,115,123,37,139,120,126,120,121,118,120,241,120,117,91,138,122,121,124,241,110,119,70,94,114,121,123,0,118,122,132,116,108,113,118,24,118,121,133,117,122,124,113,240,116,121,97,123,118,102,66,204,117,123,82,123,121,130,123,0,125,114,111,124,123,121,114,45,103,125,134,124,135,131,132,240,124,122,91,121,117,118,118,194,117,124,76,110,126,117,119,0,129,116,119,119,123,136,126,53,115,125,137,109,120,123,127,241,133
118,91,115,117,120,122,210,119,119,81,122,119,123,129,0,114,122,122,118,122,125,130,51,114,120,142,131,124,113,124,240,137,120,98,121,122,133,110,238,113,121,81,121,125,122,119,0,125,127,127,122,120,120,123,35,119,109,138,119,124,124,121,241,106,123,98,112,118,119,123,227,119,121,86,125,123,121,115,0,127,122,133,135,129,123,122,38,123,118,143,120,118,119,103,242,118,121,109,124,119,126,129,237,116,119,94,119,123,123,117,0,121,122,137,106,113,122,124,29,120,123,141,125,129,102,123,241,128
118,102,123,122,124,123,215,116,121,84,118,122,124,115,0,124,119,126,122,122,127,125,35,121,123,145,116,116,117,120,242,122,119,112,149,132,120,121,238,115,118,79,118,122,121,114,0,107,124,126,119,119,119,119,30,128,119,141,123,124,120,128,242,122,122,113,124,124,126,117,229,121,121,89,119,123,125,120,0,126,117,126,115,120,119,110,32,121,120,153,111,114,120,125,241,123,123,106,133,134,121,116,214,125,122,86,121,122,119,140,0,125,118,154,125,119,100,114,37,119,121,162,136,127,121,122,242,121
122,113,122,119,121,120,239,119,121,88,124,127,122,120,0,127,121,125,122,121,120,120,25,122,119,132,122,120,120,122,242,117,123,100,118,125,121,121,232,119,123,84,110,118,119,108,0,122,122,123,125,121,129,125,28,123,118,134,116,118,118,131,241,117,125,107,132,127,119,115,212,113,119,106,124,122,128,120,0,133,121,122,114,118,113,126,36,120,120,130,128,129,119,136,242,114,121,99,121,123,127,119,212,111,121,102,121,124,121,120,0,125,120,125,117,116,120,123,39,120,119,145,120,123,120,126,241,118
121,113,129,123,119,117,210,115,122,104,122,126,123,120,0,124,117,123,118,118,119,119,42,122,121,145,124,120,121,121,241,116,120,112,131,124,124,123,212,121,122,103,104,118,121,117,0,123,120,130,127,120,119,123,43,121,118,129,120,115,111,137,241,117,121,108,125,120,121,119,193,119,120,101,125,126,124,124,0,125,119,123,120,119,116,120,49,121,120,143,129,123,124,112,242,118,122,116,139,130,124,120,219,124,123,104,114,118,130,127,0,118,118,126,120,121,119,122,37,129,114,146,112,114,115,120,242,109
121,118,151,133,117,123,228,117,123,115,124,124,128,111,0,124,121,123,118,119,118,123,28,126,120,145,114,117,119,124,241,115,123,116,120,121,125,114,191,133,119,115,127,121,105,113,0,121,121,134,121,122,117,122,40,124,122,135,106,123,125,121,240,116,120,108,108,117,123,125,174,121,122,114,127,126,111,112,0,121,120,120,113,119,117,120,49,128,121,128,123,122,120,123,241,119,121,114,127,122,122,125,168,119,121,111,120,124,120,119,0,121,119,121,119,119,124,120,53,126,119,125,124,121,117,123,242,112
119,113,117,118,123,116,176,120,123,117,126,129,119,117,0,122,122,122,106,121,117,127,53,119,119,132,121,122,120,124,240,119,122,113,128,122,105,116,191,117,118,109,118,122,125,105,0,126,120,127,120,122,121,123,46,123,119,127,120,119,106,100,241,114,119,122,115,119,128,133,211,110,119,112,122,123,122,118,0,125,122,128,114,127,127,124,39,119,119,130,119,116,110,121,241,106,118,120,123,121,121,122,198,123,119,115,121,124,125,121,0,116,120,130,120,121,120,121,41,116,123,129,124,122,122,125,241,121
121,115,123,123,113,125,181,124,118,114,129,128,122,118,0,115,120,124,107,116,120,117,43,122,123,125,120,119,121,126,241,122,120,116,121,127,115,116,177,120,119,113,117,122,114,105,0,119,120,125,115,120,122,121,50,123,122,120,119,121,118,127,242,122,115,113,110,118,129,118,172,115,124,105,121,122,119,118,0,123,118,122,121,123,122,120,49,116,124,123,122,121,124,126,242,124,121,114,121,121,120,120,151,128,119,110,115,120,114,138,0,124,115,120,119,119,118,128,52,119,120,120,123,121,108,115,241,120
121,115,123,120,121,122,185,119,122,119,121,124,116,112,0,123,118,126,116,119,123,124,48,117,120,123,120,119,123,125,242,122,124,121,132,125,117,116,179,122,118,121,128,122,122,124,0,116,123,124,112,121,117,127,48,125,120,126,122,119,122,125,240,116,121,118,120,131,122,118,191,116,121,125,128,119,115,118,0,128,120,125,130,127,119,121,43,120,121,124,112,119,120,125,242,110,120,116,114,115,118,118,171,119,120,115,126,130,131,124,0,119,120,123,120,119,122,95,47,121,124,126,125,119,109,112,241,118
121,116,116,123,125,122,162,121,121,115,121,123,135,123,0,134,118,127,124,124,124,121,49,109,121,123,122,117,128,109,241,122,120,115,125,123,125,121,173,117,121,118,125,123,119,121,0,127,120,123,116,120,121,121,53,119,120,121,123,123,122,125,242,117,122,118,122,120,121,118,160,117,123,116,117,121,120,119,0,123,122,122,112,118,120,120,55,123,119,126,122,122,126,121,242,119,121,116,121,121,121,120,146,120,118,118,128,124,122,111,2,110,120,125,120,121,120,123,57,125,121,127,132,123,125,123,242,123
123,118,116,120,120,115,153,118,121,117,114,125,127,123,0,126,117,124,124,122,118,124,51,116,121,121,125,122,125,109,242,116,122,118,111,124,132,101,141,117,124,119,119,120,101,120,1,131,119,125,114,122,121,122,56,120,120,125,116,118,119,121,241,116,120,115,121,121,107,110,114,126,119,120,122,121,121,119,16,120,121,142,118,121,123,124,67,119,118,125,134,116,121,122,241,117,124,116,123,132,126,124,175,121,123,120,121,121,121,121,0,129,121,121,120,117,120,123,52,131,117,130,122,124,125,111,240,110
121,116,112,120,136,114,133,111,124,117,134,124,125,117,4,117,119,119,119,120,123,124,60,138,117,122,119,117,127,128,242,103,124,124,135,126,125,112,113,118,124,121,117,119,121,120,13,119,116,117,117,131,126,112,65,123,119,121,124,121,131,117,240,103,123,118,112,127,124,126,98,121,122,139,132,120,117,127,21,117,119,117,110,117,118,120,70,128,121,125,112,121,125,130,241,123,124,119,112,119,107,106,127,122,125,119,132,125,130,105,13,135,122,123,120,117,118,118,65,118,120,121,122,115,100,120,240,127
122,127,164,132,120,109,97,118,114,114,115,123,136,138,28,126,114,117,127,114,93,103,74,108,120,121,102,120,134,121,240,105,121,122,127,122,121,128,28,118,125,108,93,113,112,118,52,113,121,119,63,111,125,129,86,122,122,126,162,118,103,120,241,126,115,107,131,121,114,133,24,114,128,116,114,129,125,115,59,124,119,114,167,129,119,122,89,125,122,120,123,122,121,121,241,113,120,115,134,121,120,119,62,122,121,123,144,132,117,117,48,122,121,122,114,117,114,142,85,122,122,126,124,114,69,104,242,119
120,117,123,121,130,114,96,119,119,108,115,120,117,156,31,131,122,124,114,117,110,103,75,116,119,122,115,123,123,120,242,107,119,116,112,117,130,125,127,126,127,117,107,123,126,130,12,123,124,127,104,114,110,130,65,122,121,134,144,128,119,123,241,115,119,118,132,125,119,121,104,113,124,126,122,128,123,123,10,136,114,116,105,115,122,122,64,99,120,124,88,119,119,122,240,115,126,114,107,115,133,115,96,124,114,114,118,127,149,139,25,123,119,117,105,113,122,118,72,113,123,138,111,125,110,122,241,116
123,115,134,123,119,125,95,126,121,119,95,117,132,151,20,119,120,128,126,124,124,117,69,121,121,133,120,121,116,115,242,113,117,118,149,135,143,107,104,118,121,117,115,118,105,155,12,121,120,123,112,116,117,121,65,122,123,129,146,129,131,107,241,119,122,129,136,123,119,123,94,133,125,118,96,118,127,119,20,117,117,136,119,116,109,121,69,119,122,127,122,122,119,125,242,119,122,119,122,127,135,112,102,113,123,115,128,126,99,113,15,129,120,126,162,133,139,121,66,127,120,129,145,131,101,112,241,113
120,119,114,114,107,116,91,133,120,113,149,128,124,132,16,131,119,131,130,128,111,109,67,122,123,126,119,116,141,116,241,115,119,111,106,113,109,87,109,120,118,114,130,117,120,95,10,119,130,139,104,132,131,131,64,127,116,129,107,120,122,124,240,106,116,104,109,113,111,119,120,113,123,114,120,119,109,110,2,121,124,135,135,129,122,117,58,114,128,134,149,134,128,126,240,144,123,110,85,109,101,116,98,126,118,109,128,110,110,121,8,117,123,133,87,134,158,103,62,132,118,127,124,119,124,122,242,120
122,111,103,103,113,99,119,123,124,120,138,148,126,118,5,120,123,127,113,114,124,122,61,133,119,137,152,133,127,143,242,114,115,109,79,110,116,119,68,113,125,122,71,121,123,116,20,129,122,126,115,109,97,105,70,119,115,116,54,87,129,135,242,129,121,119,101,108,104,79,61,120,117,117,141,129,123,176,30,115,121,134,97,119,117,130,75,109,119,130,143,118,115,112,241,93,122,120,68,123,125,150,89,174,107,112,186,131,115,115,18,66,122,132,67,107,127,128,69,133,125,129,98,124,134,123,242,119
120,115,125,138,113,122,83,106,117,112,163,123,127,112,17,101,112,139,137,120,119,126,67,122,123,124,116,109,112,118,241,113,116,115,131,145,133,121,66,132,112,104,109,114,117,115,26,96,124,129,113,117,121,101,72,118,120,131,121,123,121,125,242,120,122,114,123,122,123,120,78,123,119,126,125,128,146,141,26,121,117,125,119,119,154,93,73,125,119,137,136,117,129,156,241,103,115,110,77,110,121,175,127,96,122,115,139,125,112,92,2,130,119,122,125,111,116,123,57,132,112,133,164,131,123,114,241,105
126,107,125,116,113,126,92,152,118,117,128,118,118,101,5,118,123,113,91,124,123,128,60,120,119,131,113,118,119,123,240,109,121,112,118,125,117,117,151,121,122,116,119,122,122,121,0,132,123,128,131,115,119,115,43,148,127,127,97,119,108,111,241,117,115,116,144,123,112,98,137,122,120,114,63,119,121,125,0,120,125,126,110,112,112,122,42,132,115,128,140,116,112,125,241,147,116,121,116,116,110,109,42,106,112,108,133,122,114,133,9,82,130,136,147,139,149,138,63,163,113,113,125,124,115,147,241,102
122,117,124,123,121,106,24,119,119,105,124,111,123,112,39,122,118,133,150,142,118,120,79,119,120,129,133,137,119,133,240,122,119,124,121,112,116,116,76,120,119,109,118,119,120,118,28,121,123,141,113,120,114,142,73,118,119,129,107,132,125,148,241,127,120,121,139,133,132,115,154,142,123,119,132,124,124,121,0,111,121,130,72,111,127,132,53,101,123,120,128,120,132,107,242,109,120,122,57,115,132,113,75,117,119,112,135,127,127,119,1,114,119,126,120,119,131,120,56,124,122,122,125,122,121,126,240,113
123,126,131,119,127,121,62,134,114,111,98,135,132,119,17,114,119,119,125,127,122,121,68,117,123,130,123,118,122,125,242,128,122,115,97,113,121,143,123,126,121,118,100,129,130,124,0,118,120,124,110,114,120,120,55,119,121,121,119,117,131,120,241,111,123,114,115,119,114,112,93,132,126,116,126,121,112,95,0,126,117,122,103,125,132,139,54,130,119,134,131,120,111,121,242,113,122,104,123,122,128,118,92,119,120,121,123,124,119,140,0,123,123,125,115,121,135,125,52,123,120,125,127,118,103,131,242,117
121,123,142,138,119,124,74,120,117,120,117,118,117,114,6,141,122,126,113,120,124,125,61,115,124,128,120,121,119,123,242,118,121,115,122,124,126,121,56,123,124,120,124,127,126,121,17,124,115,127,120,117,119,119,67,121,123,123,119,126,120,124,242,120,118,112,120,125,128,129,63,116,120,113,133,129,129,121,20,116,120,124,118,119,118,130,69,118,125,127,146,127,122,126,240,141,119,120,130,123,121,111,89,113,120,102,114,122,126,130,3,128,121,119,121,122,129,153,59,121,124,130,124,119,119,129,241,117
117,116,138,134,119,118,49,112,120,119,110,119,122,118,20,123,116,122,114,115,118,117,69,118,120,127,108,118,116,113,241,120,120,115,131,119,125,127,39,119,123,115,127,132,125,121,29,121,116,124,99,118,120,120,74,103,127,126,115,120,119,134,242,139,119,119,120,120,119,125,40,118,119,114,132,129,120,132,34,131,121,126,118,121,112,121,77,115,120,126,127,118,131,123,240,118,119,110,123,125,117,114,2,123,121,120,119,120,120,117,48,117,121,123,123,121,122,119,83,120,124,127,116,117,118,115,241,131
126,120,125,125,125,125,20,125,120,121,125,116,129,113,44,125,120,127,88,110,125,125,82,123,125,120,123,131,140,144,242,110,117,115,128,119,126,126,21,130,122,101,103,117,130,123,43,131,121,122,123,121,125,119,81,119,118,123,107,116,116,129,240,113,121,120,135,128,120,117,41,122,121,119,121,124,124,119,33,121,120,128,112,119,120,124,76,120,123,124,124,115,127,122,242,121,119,113,96,123,123,121,90,120,116,115,122,122,115,117,9,114,119,123,132,124,121,142,63,109,122,130,117,116,107,107,242,120
121,114,114,120,123,119,62,117,123,118,125,126,130,107,16,119,120,124,120,114,125,123,67,125,121,126,120,126,120,98,241,118,121,112,116,118,119,121,55,119,118,120,121,125,124,114,14,127,124,126,126,121,108,92,67,125,117,125,125,121,120,125,241,120,118,119,114,121,119,122,47,113,121,118,118,122,128,126,15,123,121,126,125,122,118,121,66,127,118,127,108,119,122,126,241,108,124,117,138,129,122,119,55,124,114,112,111,115,119,118,10,114,124,117,106,119,124,123,64,123,122,132,127,120,132,114,242,121
122,117,120,125,121,121,58,126,119,116,116,119,115,98,5,121,119,123,120,123,123,133,60,119,121,127,128,124,117,122,242,117,120,119,122,115,122,128,79,122,119,123,146,129,119,114,7,120,119,123,119,120,116,119,62,119,117,123,119,116,120,123,240,119,124,126,126,127,125,122,54,123,120,117,118,119,120,113,13,117,122,125,119,119,120,123,66,125,122,127,127,122,121,123,241,116,120,118,118,121,122,121,67,123,124,118,121,121,121,118,3,133,119,121,118,118,118,122,59,113,123,128,125,129,120,115,241,116
121,120,118,120,122,119,15,122,124,115,119,121,131,112,33,121,119,144,120,121,123,128,76,138,118,116,108,117,115,124,242,118,124,112,140,129,126,129,20,116,122,118,119,120,122,119,38,124,120,120,123,119,120,122,78,120,121,122,118,124,132,120,242,123,118,123,129,124,115,114,3,120,122,121,120,122,131,125,42,123,119,121,126,121,120,123,81,121,125,121,120,125,121,123,241,120,116,118,134,125,123,121,18,112,121,121,121,119,119,119,34,130,124,124,120,121,122,122,76,120,119,123,120,122,121,123,241,126
124,117,125,122,120,119,3,126,120,122,82,127,124,122,40,118,121,124,117,118,121,121,79,124,120,113,113,119,119,123,242,119,119,119,128,125,119,121,3,124,125,120,127,126,124,119,44,120,117,121,113,116,121,123,82,114,123,121,112,121,122,125,242,119,119,116,118,121,122,119,9,118,118,115,111,118,120,123,64,124,129,130,129,121,122,125,92,131,121,122,120,121,131,116,241,120,121,116,116,121,127,123,2,123,118,116,122,120,119,118,58,117,121,124,118,120,121,122,89,125,122,120,120,119,122,123,241,123
123,120,121,124,117,119,0,122,119,122,126,122,113,124,52,119,123,129,134,125,123,130,86,120,119,119,121,126,130,115,241,120,120,114,119,122,123,124,0,117,121,125,120,117,129,124,47,119,121,124,120,123,123,124,84,120,121,124,123,121,136,131,241,121,118,114,125,125,120,121,20,110,124,122,115,120,121,119,36,133,118,124,132,124,121,123,78,116,123,126,121,121,120,127,242,119,122,121,122,125,123,115,44,125,117,117,119,120,121,120,18,113,120,125,115,118,121,122,68,123,119,126,143,126,122,123,242,110
123,119,118,124,122,120,23,119,120,122,118,120,113,122,15,127,120,121,121,120,122,119,66,121,119,122,121,122,120,123,242,119,121,115,120,120,122,120,42,122,119,121,120,126,121,120,15,122,120,124,119,119,121,122,66,121,122,121,119,121,121,122,242,118,121,117,121,123,122,121,58,122,118,118,118,122,120,120,10,123,119,128,125,143,122,122,64,120,123,125,116,116,119,122,242,119,123,118,127,123,122,120,55,122,119,124,120,120,120,119,12,122,121,125,120,122,121,122,72,121,120,134,120,122,120,122,241,118
121,121,122,123,122,120,112,121,121,123,121,122,121,120,0,123,120,125,120,121,121,121,146,119,121,125,121,122,121,122,240,118,121,129,121,122,121,120,241,119,120,127,120,121,121,118,0,122,120,127,121,122,118,122,241,118,122,121,121,119,121,118,240,119,120,119,122,124,121,121,241,118,118,127,120,121,121,120,241,117,121,128,120,120,120,122,241,118,122,121,121,120,120,122,242,119,120,114,122,122,123,119,240,118,120,132,120,123,121,123,242,118,121,142,122,129,123,124,240,119,122,132,121,126,122,123,153,121
120,123,114,114,118,119,129,119,120,129,121,125,122,119,125,121,121,123,134,125,119,121,123,120,122,109,116,131,126,123,123,123,121,113,122,123,121,118,121,120,118,115,114,135,122,117,122,119,123,119,129,111,115,120,122,119,119,110,113,123,122,121,122,121,122,120,123,133,126,123,122,121,124,121,126,128,125,117,121,123,118,117,117,104,115,114,122,120,120,116,118,129,121,118,122,112,125,118,121,121,124,125,121,134,119,117,118,119,118,121,122,117,118,115,120,123,121,124,121,118,121,115,122,122,122,124,122,121
119,111,118,116,117,120,121,119,119,115,117,117,122,116,121,115,122,120,121,140,128,135,121,119,122,124,143,130,118,125,122,122,121,118,116,115,120,123,122,120,117,118,117,119,116,113,121,122,122,118,118,118,121,126,122,122,120,119,122,123,119,114,122,114,121,118,123,127,123,125,121,123,121,122,118,120,124,130,121,126,124,127,128,122,123,126,121,133,119,121,123,122,120,116,122,114,122,125,126,126,123,120,121,121,119,120,118,118,120,123,121,123,120,124,120,120,118,119,121,115,125,123,122,125,121,124,121,125
120,122,121,115,121,122,122,119,119,121,120,122,122,123,121,120,120,126,121,122,119,120,121,118,123,127,121,124,118,121,121,125,120,125,121,116,124,126,121,123,119,127,120,120,123,118,121,118,120,122,120,119,119,120,122,117,122,117,122,120,118,120,121,123,121,120,121,122,123,119,121,121,118,119,120,121,122,118,122,118,121,123,120,123,120,123,122,124,119,117,121,122,119,118,121,116,123,122,122,126,126,130,121,131,120,121,120,117,122,118,121,117,120,120,119,120,119,119,121,119,122,120,121,122,119,121,122,121
123,120,121,122,122,120,121,120,115,119,119,121,123,121,122,120,121,122,120,121,120,122,121,120,123,124,122,122,120,122,121,122,121,124,121,121,122,121,121,121,119,125,120,121,122,121,122,120,121,123,121,120,119,121,121,120,122,129,121,122,120,122,121,120,120,127,121,121,121,121,121,120,119,122,121,120,123,121,122,119,121,126,121,123,121,122,121,120,121,122,122,121,119,121,121,121,121,118,121,122,121,120,121,120,119,116,121,122,123,120,121,118,121,120,121,121,121,123,122,124,122,119,121,122,120,122,122,121
120,118,121,124,123,121,122,121,119,118,119,122,121,120,122,121,120,120,120,124,119,122,122,121,121,120,121,120,121,122,122,122,120,121,121,122,121,120,121,120,121,120,120,122,123,121,121,122,120,120,121,122,121,122,121,119,122,120,121,122,120,121,121,121,121,124,121,121,122,121,121,121,119,121,120,121,122,121,122,120,120,121,121,122,120,121,121,120,120,120,122,121,121,122,122,121,121,121,121,122,121,120,121,119,120,121,121,122,122,120,121,120,120,121,121,121,119,121,121,119,123,122,123,123,120,119,121,122
120,121,120,122,122,122,121,120,120,124,120,120,122,119,121,118,121,123,121,120,120,122,122,121,122,120,122,122,120,122,122,121,121,120,121,122,122,121,121,121,119,120,120,121,122,122,114,121,120,123,120,121,120,121,120,119,123,122,120,121,119,121,107,122,119,121,121,122,123,120,84,121,121,122,120,122,123,122,100,121,118,122,121,120,119,120,121,120,121,119,121,122,121,122,104,121,122,122,122,123,123,121,84,122,119,122,121,122,122,120,100,119,120,122,120,119,119,120,121,119,121,122,121,122,120,121,105,121
121,121,121,123,122,120,88,121,120,120,120,121,121,120,104,121,120,123,121,121,120,121,127,120,121,120,121,122,120,122,112,122,120,119,120,122,121,121,89,122,120,122,121,122,122,120,102,121,120,123,121,122,121,122,123,119,122,122,122,122,120,121,108,121,121,121,122,122,122,120,81,122,120,121,121,122,123,121,110,120,121,121,121,122,120,122,144,120,120,120,122,122,119,120,111,120,121,121,121,121,122,121,86,121,120,122,121,122,123,121,102,119,120,122,121,121,119,120,126,119,122,122,122,122,121,123,119,123
120,122,121,122,122,120,90,119,120,121,121,123,123,121,115,124,120,121,120,121,120,121,128,119,122,120,121,121,120,121,116,121,120,120,121,121,121,120,96,121,120,122,121,121,122,119,104,120,120,122,121,123,121,122,130,120,122,122,122,122,120,121,118,122,120,119,120,122,122,122,96,119,120,121,120,121,122,118,108,122,119,122,121,121,119,120,127,119,122,122,121,122,121,122,121,120,121,121,121,122,122,120,96,121,120,122,121,122,121,120,107,120,119,121,121,121,120,121,132,119,119,121,121,122,121,122,120,123
121,121,121,122,122,120,96,119,122,122,120,121,121,121,112,124,120,123,122,122,120,122,137,119,121,120,121,122,120,121,117,120,120,120,121,122,122,121,105,120,120,122,121,122,122,120,103,120,121,123,121,121,120,121,125,120,122,121,122,122,121,122,122,122,121,120,121,122,121,121,95,122,120,121,121,122,121,119,107,120,119,121,121,121,120,122,130,119,122,122,122,121,120,120,121,120,120,120,121,122,122,122,104,121,120,122,120,121,121,121,114,121,119,121,121,122,121,121,130,119,123,122,121,121,120,122,117,120
122,122,122,122,121,119,87,121,119,121,121,122,123,121,116,121,120,122,120,121,120,121,133,118,123,121,121,122,121,122,122,123,120,120,121,122,122,121,102,120,119,121,120,121,121,120,118,119,121,123,122,122,122,124,127,121,121,122,120,121,121,121,125,121,123,121,122,123,123,121,105,122,119,121,120,121,121,121,114,120,120,121,121,121,120,121,131,119,122,121,121,122,121,122,122,121,121,120,121,122,122,121,105,121,119,121,121,122,122,121,115,120,121,123,121,120,120,121,131,120,122,122,121,122,120,121,121,122
121,120,121,121,122,121,106,121,120,122,121,122,122,120,115,120,119,122,121,121,119,120,131,119,123,121,121,122,121,122,122,122,120,121,121,123,122,121,107,121,120,123,121,121,121,119,116,121,119,121,121,121,120,122,135,119,122,122,122,122,120,120,122,121,120,120,121,122,122,121,106,120,120,123,121,122,122,121,119,120,120,121,121,121,120,119,130,120,122,122,121,122,121,124,125,121,120,120,121,122,122,121,111,120,120,123,121,122,122,121,120,120,120,122,120,120,119,120,131,122,121,121,122,122,121,122,118,120
120,121,121,122,122,121,108,121,119,122,120,122,122,121,118,121,119,122,120,120,120,121,132,119,121,121,121,122,121,122,119,120,121,121,121,122,122,121,109,121,120,122,120,121,121,121,118,120,120,122,120,121,120,120,133,120,120,121,121,122,121,123,122,120,121,121,122,122,122,121,108,121,120,122,121,122,121,120,117,119,120,122,121,122,121,121,132,119,122,122,122,122,121,121,119,122,119,121,121,122,122,121,107,119,120,123,120,121,121,121,118,120,119,122,121,122,120,120,133,119,122,121,121,123,121,122,121,122
122,121,121,123,123,120,105,121,120,121,121,121,121,121,123,119,119,122,120,120,120,121,132,119,122,122,122,122,122,121,118,121,121,121,121,122,121,121,107,121,119,122,121,122,122,121,118,119,120,122,121,121,120,121,130,119,123,121,122,123,121,122,124,123,121,121,120,122,121,121,111,120,118,121,121,122,122,122,112,117,120,121,120,121,120,121,130,121,120,121,121,122,121,120,119,118,122,122,122,123,121,120,108,120,119,121,120,120,121,120,122,119,118,120,120,121,120,121,132,118,125,121,121,122,121,122,122,121
121,121,121,123,123,122,108,122,120,122,120,121,121,121,121,120,120,122,121,121,119,120,133,119,122,121,121,122,121,121,121,121,122,121,121,123,123,121,109,122,119,121,120,121,121,121,119,120,120,122,120,121,120,121,133,119,122,122,122,122,121,121,121,123,121,121,121,121,121,120,108,121,119,121,121,122,122,120,118,119,120,122,121,122,120,121,135,119,121,121,121,122,121,121,119,120,122,122,121,122,122,121,109,121,121,122,120,121,120,121,121,121,119,122,121,121,119,120,133,118,122,121,121,122,121,121,119,121
121,121,121,123,123,121,108,121,120,122,121,121,118,121,121,121,119,120,120,121,123,121,132,119,121,122,122,122,120,120,118,120,122,122,122,123,122,120,107,121,120,122,121,122,122,121,120,121,119,122,121,121,120,120,131,117,121,121,122,122,122,124,128,125,122,120,121,122,122,120,107,120,116,122,120,121,121,120,119,119,120,121,121,121,119,120,134,119,122,122,121,122,121,122,123,121,122,121,121,122,122,121,106,121,119,120,120,121,121,121,122,119,120,122,121,121,120,121,131,119,120,121,121,122,121,121,119,121
122,122,122,123,121,120,110,121,120,122,121,121,121,121,119,120,119,122,121,121,120,121,132,118,122,122,122,122,121,122,126,122,121,123,122,123,122,121,107,121,120,122,120,120,121,121,120,121,119,121,119,120,120,121,131,118,121,122,121,123,121,121,120,121,121,121,120,122,122,121,107,121,120,121,120,121,121,121,121,121,119,121,120,121,120,121,134,119,122,122,122,122,120,121,118,121,121,121,121,122,122,121,105,120,120,121,121,122,122,121,119,119,118,120,120,121,120,121,136,118,125,122,122,122,121,122,126,121
120,122,121,122,122,121,109,121,121,122,120,121,121,121,122,120,120,122,121,121,120,121,135,119,121,122,121,122,121,122,121,121,122,121,121,122,123,121,108,122,120,121,121,121,120,121,123,120,119,120,121,121,120,122,133,119,121,121,121,122,121,121,118,120,123,120,121,123,124,124,116,122,120,121,120,121,121,120,121,120,119,120,120,121,120,121,130,119,121,121,121,121,121,121,121,119,124,121,121,122,122,121,109,125,120,121,120,121,121,121,123,119,119,121,120,121,120,121,134,119,122,122,121,122,121,121,120,121
122,122,122,123,123,121,108,122,120,122,121,122,122,120,120,120,120,122,120,121,120,121,134,119,121,121,121,122,120,120,113,120,122,122,122,123,123,122,114,122,119,121,121,121,120,119,117,119,119,122,121,121,120,121,134,119,122,122,122,123,122,121,118,121,121,121,122,123,123,121,111,121,118,121,120,121,121,121,122,119,119,122,121,121,119,120,135,119,121,121,122,123,121,121,119,120,121,121,121,123,123,121,108,121,120,122,121,122,122,121,123,120,120,123,121,121,119,120,132,119,122,120,120,121,121,121,119,120
122,121,122,123,123,121,108,123,120,124,121,122,122,122,123,120,120,121,121,121,120,122,133,119,122,121,120,121,121,121,120,121,121,122,122,123,122,120,108,120,120,122,121,122,121,120,121,121,119,121,121,121,119,122,135,119,121,121,121,122,121,121,116,121,124,121,121,123,121,120,106,121,118,121,121,122,122,122,123,121,120,122,121,121,120,121,136,119,121,121,121,121,121,122,121,121,121,122,122,123,122,120,107,123,121,122,121,122,120,120,123,120,119,122,120,120,120,121,136,120,121,121,121,122,122,121,117,120
121,120,121,123,122,121,108,122,121,122,121,121,121,120,122,119,119,123,120,120,119,121,135,119,122,122,122,123,121,121,120,121,122,122,122,123,122,120,104,121,120,122,121,121,120,120,124,120,120,122,121,120,119,122,136,121,121,120,121,122,121,122,121,122,121,121,121,122,121,121,105,120,119,119,119,121,121,121,124,120,120,123,120,120,120,122,132,119,122,122,122,123,122,122,119,121,122,122,121,122,122,121,107,122,120,121,121,122,121,120,124,121,123,121,120,119,119,120,137,118,119,122,122,123,122,122,119,121
123,121,122,123,122,122,110,122,120,121,121,122,121,120,120,119,120,122,120,120,119,120,136,119,121,121,122,122,121,121,117,120,122,120,121,123,122,120,107,121,119,121,120,121,120,120,123,120,120,123,121,121,120,121,134,119,121,122,121,121,120,121,117,120,122,121,122,123,122,121,107,121,120,121,120,121,121,121,124,121,119,121,120,121,120,122,136,118,120,121,122,121,120,120,119,120,121,121,121,123,123,122,106,121,120,122,120,121,121,121,127,120,117,121,120,120,120,122,136,119,121,121,122,122,120,121,118,121
123,122,122,124,123,121,109,123,120,122,120,121,121,121,121,120,118,122,121,120,119,120,132,119,122,121,122,122,120,120,120,120,123,122,122,123,122,121,108,122,119,121,120,120,120,121,123,119,119,121,121,121,120,121,132,118,121,121,121,122,121,121,120,122,122,121,122,123,122,120,106,122,121,122,120,121,121,121,122,120,119,121,120,120,120,121,137,120,121,122,122,122,121,120,118,120,122,122,122,124,122,120,104,121,118,121,121,121,121,121,124,119,121,121,120,120,119,120,135,119,121,121,121,122,121,121,117,120
119,121,121,123,123,121,107,121,120,122,121,122,121,121,121,120,121,122,120,120,120,122,136,120,119,121,121,122,121,120,116,119,122,122,122,123,122,121,112,122,119,121,120,121,121,121,123,119,120,123,121,120,119,121,135,119,121,121,121,122,121,121,121,122,121,121,122,124,123,121,106,121,120,121,120,121,121,121,124,120,119,121,121,121,120,121,133,118,122,122,121,122,121,121,119,121,121,121,122,123,122,120,105,121,119,120,120,121,120,120,123,119,119,121,120,121,120,122,137,119,121,122,121,122,121,122,119,120
122,122,122,122,122,120,108,121,118,121,121,121,120,120,122,119,121,122,120,120,120,121,135,119,121,123,122,122,121,120,118,120,122,122,122,123,122,120,107,122,121,122,120,121,121,122,125,120,120,121,120,121,120,122,137,120,121,121,120,121,121,121,117,121,121,120,121,123,122,121,105,121,119,121,121,121,122,122,125,119,119,121,119,119,119,121,133,119,122,122,122,123,122,122,118,121,121,121,121,122,122,120,109,122,121,122,120,121,121,123,126,122,120,122,120,120,120,121,127,120,121,122,121,121,121,121,126,120
121,122,121,121,121,121,119,120,121,122,121,121,121,120,120,120,121,123,121,122,121,120,122,120,120,121,121,122,121,121,122,119,121,120,120,122,121,122,120,120,121,122,121,122,121,121,119,119,119,120,121,122,121,120,121,119,122,122,122,122,121,121,123,121,122,122,122,123,122,122,117,122,120,122,120,121,121,121,122,120,118,121,120,121,120,122,133,119,119,121,121,122,121,121,119,120,122,121,122,124,123,121,110,122,121,122,120,120,120,120,121,120,119,121,120,120,119,121,136,119,121,122,121,121,121,121,120,121
123,122,122,122,122,121,109,122,121,121,120,121,121,121,125,121,120,122,121,120,119,120,129,118,121,121,121,121,121,121,124,121,122,122,121,122,122,121,108,121,121,122,120,121,121,122,121,122,120,122,121,122,120,120,126,117,122,122,121,122,121,121,125,121,119,119,120,122,121,121,118,120,121,122,122,123,123,122,119,121,119,120,120,121,121,121,125,119,122,123,121,120,120,121,123,120,121,122,122,122,121,121,118,121,120,122,121,122,122,121,118,120,121,122,121,122,121,120,125,120,120,122,122,122,120,121,121,121
120,121,121,121,121,120,119,120,122,122,121,121,121,121,120,121,120,122,120,121,120,120,120,119,122,122,121,121,120,122,122,120,121,122,121,122,121,121,123,122,121,122,120,121,121,121,123,123,119,120,121,121,121,121,121,119,122,121,122,122,121,121,124,121,120,121,121,122,121,121,116,118,120,122,120,122,121,121,122,120,119,121,121,121,121,121,122,119,120,121,121,122,121,120,123,121,121,121,121,122,121,121,119,119,120,123,121,121,121,120,120,121,121,122,121,122,122,122,122,121,121,121,120,121,121,121,122,121
121,121,121,122,122,121,119,119,122,121,121,122,121,121,124,122,121,122,121,121,120,121,120,120,120,122,121,121,120,121,124,120,121,122,121,122,122,121,118,119,120,122,121,122,121,120,120,120,121,122,121,122,121,121,122,120,120,122,121,122,122,122,122,120,121,122,122,122,121,121,119,121,121,121,121,122,121,121,120,120,120,121,121,122,121,121,123,119,121,121,121,122,121,122,121,119,121,121,121,122,122,121,120,120,119,120,121,122,121,122,121,120,120,122,121,122,120,121,123,120,120,122,121,122,122,121,121,120
120,121,121,121,120,122,123,120,121,121,120,121,120,121,120,120,121,121,120,122,121,121,122,122,121,121,121,121,120,121,120,119,120,121,121,122,122,122,126,121,121,123,120,121,121,121,121,122,120,121,121,122,121,122,123,119,120,120,121,122,121,121,122,119,121,122,121,122,122,122,122,121,120,121,121,122,122,121,123,120,120,121,121,121,120,121,122,119,121,122,121,121,121,121,121,120,122,122,122,123,122,121,121,121,120,122,121,121,121,121,119,121,120,122,121,122,120,121,125,120,120,122,121,122,121,121,120,120
120,121,121,122,121,122,122,120,120,121,121,122,121,121,119,122,119,121,121,121,121,122,123,119,120,121,120,121,121,121,123,120,122,122,121,122,121,121,119,121,120,121,121,122,122,121,120,120,120,122,121,122,120,120,121,120,121,123,122,122,121,121,127,122,120,121,121,122,122,121,119,120,120,121,121,122,121,120,119,119,120,121,121,121,121,121,125,119,121,121,120,122,121,121,122,121,120,121,121,122,121,120,115,120,122,123,121,122,122,122,125,121,119,121,121,122,121,120,120,119,121,122,121,122,121,121,121,119
120,122,121,122,121,122,120,121,119,120,121,122,121,121,121,121,120,120,121,122,120,120,123,119,121,121,121,122,120,121,123,121,120,122,122,122,121,121,118,120,121,121,121,122,121,122,126,122,120,122,121,121,120,120,122,119,122,121,120,121,121,121,122,121,120,122,121,121,120,121,119,119,121,121,120,121,121,121,121,123,120,121,121,122,121,122,124,120,124,121,121,122,122,120,121,120,119,122,121,122,121,120,119,120,120,121,121,122,122,121,120,120,120,121,120,121,121,121,124,121,121,121,121,122,121,121,121,120
121,122,121,122,121,121,120,121,120,121,121,122,120,120,119,119,120,122,121,122,122,121,124,120,122,122,121,122,122,122,122,120,122,121,120,121,121,121,119,121,120,121,120,121,121,121,120,121,121,121,120,121,121,121,124,120,121,122,121,122,121,122,117,121,120,121,122,122,121,121,129,121,120,121,121,122,122,121,120,120,120,121,121,121,119,121,123,120,120,122,121,122,121,121,122,120,120,120,121,122,122,122,119,120,121,121,120,121,121,121,120,121,120,122,120,121,120,121,125,120,121,121,121,122,121,121,123,119
121,122,122,122,121,121,118,121,125,122,121,121,121,121,119,120,118,121,121,121,120,120,124,120,121,121,121,122,120,120,123,120,122,121,121,123,122,121,119,121,121,122,121,121,121,121,119,120,120,122,121,122,121,121,124,120,121,122,122,122,121,121,122,121,121,122,121,122,121,121,119,121,120,121,120,121,121,121,121,121,120,122,120,121,120,121,130,119,121,121,121,122,121,121,118,121,121,122,122,123,123,121,110,120,119,121,121,122,121,120,122,119,119,121,120,121,120,120,132,119,121,121,121,122,122,121,118,120
122,122,121,122,122,121,110,122,121,122,120,121,121,121,123,121,120,121,120,120,120,121,134,120,119,119,120,122,121,121,118,119,121,122,122,123,123,122,112,125,121,123,122,122,121,121,124,120,119,122,121,120,119,121,134,119,122,121,121,122,121,121,117,121,120,120,120,122,122,121,109,121,122,122,121,122,121,122,126,121,118,120,120,121,120,121,135,118,122,122,121,122,121,122,117,123,121,121,121,122,122,121,107,120,120,122,121,121,120,120,125,119,119,121,121,121,119,121,135,119,121,121,121,122,122,121,118,121
121,121,122,123,122,120,107,121,120,122,121,121,120,121,125,119,119,122,121,121,120,121,134,119,120,121,121,122,122,121,116,121,121,121,122,123,122,121,108,121,120,121,120,121,121,120,123,119,119,121,121,121,121,126,136,124,122,122,121,122,121,120,117,120,123,122,121,122,122,121,107,121,120,121,120,121,121,121,126,120,119,121,120,120,119,121,135,119,122,121,121,122,121,121,118,121,121,121,122,123,122,120,107,121,119,121,121,122,121,121,125,119,121,123,121,121,120,122,134,120,121,121,122,123,122,122,117,121
121,121,121,123,122,120,107,121,120,122,121,122,120,121,125,119,120,123,121,120,119,121,137,120,120,122,121,123,121,121,117,122,122,121,121,124,122,120,106,122,119,121,121,122,120,121,126,119,120,122,121,120,118,121,136,119,120,120,121,122,122,122,120,123,121,120,121,123,122,121,106,121,119,122,120,121,121,121,128,120,119,121,121,121,120,122,133,119,121,121,120,122,121,121,122,122,122,121,122,124,123,120,103,120,121,122,121,122,120,120,124,119,118,122,121,121,120,122,137,121,122,121,120,122,121,121,117,120
122,121,122,123,123,121,108,121,120,122,121,121,120,120,121,120,120,122,120,120,119,121,137,120,120,121,121,122,122,121,117,120,122,121,122,124,123,121,107,121,120,121,120,121,120,121,125,120,118,121,121,120,120,121,137,118,121,122,122,123,122,121,118,121,121,120,121,123,122,120,107,121,119,120,120,121,121,121,126,119,120,122,120,120,120,121,134,119,122,122,122,122,121,121,116,121,121,121,121,123,122,120,108,123,120,122,120,121,121,121,125,119,119,121,121,121,120,122,135,120,121,122,121,122,121,121,118,121
121,123,122,123,123,120,106,120,119,121,121,122,122,121,126,120,121,122,121,121,120,122,136,119,121,121,121,122,121,121,117,121,121,121,121,123,122,120,108,120,120,122,120,121,120,121,125,120,121,122,121,121,120,121,134,119,121,121,121,123,122,121,115,120,121,121,122,124,122,120,108,121,120,122,121,122,120,120,125,120,120,122,121,121,120,122,134,119,121,121,121,122,122,120,116,121,122,122,121,122,122,121,108,121,119,121,121,122,120,121,125,119,120,122,121,121,120,121,136,120,121,121,121,123,122,121,117,121
121,121,122,122,121,120,107,121,119,121,121,122,120,120,124,119,119,122,121,121,120,121,134,119,123,121,120,122,122,123,125,122,119,120,121,122,121,120,104,121,122,122,121,122,122,121,129,120,119,121,120,121,119,119,135,118,121,121,121,123,122,120,115,119,122,121,121,123,123,121,108,122,119,121,121,121,121,121,126,119,120,122,121,121,119,121,135,119,121,120,121,122,122,121,117,121,121,121,121,123,123,121,108,122,120,121,121,122,121,122,127,118,121,122,120,120,120,122,131,121,121,122,121,123,122,121,118,121
120,121,121,123,123,121,107,120,119,120,120,121,121,121,126,119,120,122,121,121,119,120,132,119,122,122,121,122,121,121,117,121,121,121,121,123,123,120,106,120,119,121,121,121,121,122,129,120,119,121,121,122,121,121,127,119,121,121,120,122,121,122,118,121,121,121,121,122,122,120,117,120,121,122,121,122,121,121,121,121,121,122,121,121,120,122,124,120,123,121,121,122,121,121,122,120,119,121,122,123,122,121,121,121,120,121,121,121,120,120,121,120,121,122,120,122,121,121,123,121,121,122,121,121,121,121,122,121
122,122,121,122,122,122,121,121,120,121,121,121,120,121,122,120,120,121,120,122,121,121,122,120,121,121,121,122,122,122,123,121,120,122,121,122,121,120,118,120,120,121,121,121,121,121,122,119,122,122,120,121,121,121,123,121,119,120,121,122,121,122,122,120,121,122,121,121,121,121,120,121,122,123,121,121,121,121,120,120,121,122,122,122,121,121,122,121,121,120,119,120,119,120,123,122,120,121,120,122,121,121,120,121,121,122,122,122,121,121,124,120,120,122,122,122,121,120,122,119,121,122,121,121,121,121,121,120
123,122,121,122,122,121,120,120,118,122,121,123,122,121,121,120,120,121,121,122,121,122,122,121,121,121,121,122,121,120,120,119,120,121,121,122,121,121,120,120,120,122,121,122,122,121,122,119,121,122,121,122,121,122,122,121,120,121,121,122,121,122,122,120,121,122,121,122,121,120,117,120,120,122,121,122,121,120,122,120,121,122,121,121,121,121,121,120,121,122,121,122,122,121,120,120,121,121,120,122,121,121,120,121,121,122,121,122,121,121,121,120,121,122,122,122,121,121,123,121,121,121,120,121,121,121,120,120
120,121,121,122,121,120,120,120,121,121,121,122,122,121,122,120,120,121,120,122,121,122,121,120,120,121,121,122,121,121,122,120,120,122,121,122,121,120,119,120,121,121,120,121,121,121,123,121,120,121,122,122,122,122,124,119,120,122,121,122,121,120,121,120,121,121,120,121,121,121,122,121,121,122,121,122,121,121,121,121,121,122,121,122,122,121,119,119,121,121,120,121,121,121,122,121,120,121,122,122,121,120,119,119,121,121,120,121,121,121,123,120,121,122,121,122,121,121,121,121,121,122,122,123,121,121,119,121
120,121,121,122,120,120,121,119,119,122,121,122,120,121,123,120,121,122,121,121,121,121,122,120,122,121,120,121,121,121,123,122,119,121,121,122,122,122,120,119,120,122,121,121,120,120,121,119,120,122,121,122,120,121,122,121,121,121,121,122,121,120,117,120,120,122,122,123,122,122,123,121,121,122,120,121,121,121,123,122,120,121,121,122,122,121,121,119,121,121,121,122,121,121,119,119,121,122,122,122,121,121,119,121,120,121,120,121,121,121,122,121,121,122,121,121,120,121,121,120,120,121,121,122,121,121,121,119
120,122,121,122,121,122,125,121,120,122,122,122,120,121,122,120,120,121,121,121,121,121,121,120,120,121,121,122,121,121,119,120,121,122,121,121,121,122,121,122,120,121,120,121,121,121,121,120,120,121,120,122,121,122,122,120,120,122,121,122,121,121,121,119,120,121,121,122,121,121,119,120,121,121,121,122,122,121,122,119,120,121,121,122,122,122,121,120,121,122,121,122,122,120,122,120,119,121,120,121,121,121,121,120,121,122,121,122,121,121,121,120,121,122,122,122,120,120,121,120,121,122,121,122,121,122,127,121
121,122,121,122,122,120,118,120,118,121,121,122,121,120,122,119,120,120,120,121,121,121,122,119,122,122,122,122,121,120,121,120,121,122,121,121,121,121,121,120,120,122,121,122,121,120,121,119,120,122,120,121,121,121,122,121,121,122,121,122,121,121,120,120,120,121,121,122,121,120,120,120,120,121,121,121,121,121,122,119,120,121,121,122,121,121,122,120,121,123,122,122,121,120,117,120,120,120,120,121,121,121,122,120,122,122,120,121,121,121,122,121,121,122,121,122,122,122,122,121,119,121,121,122,122,121,119,118
122,123,121,121,121,122,124,125,120,122,120,121,121,121,119,118,120,121,120,122,121,120,114,121,121,122,121,122,122,123,113,119,121,121,121,122,121,119,121,120,121,121,121,121,121,121,122,120,121,122,122,122,120,121,123,120,120,122,121,123,121,121,121,120,121,121,120,121,121,121,121,121,121,122,121,122,122,121,121,120,120,121,121,121,121,121,121,120,122,123,122,122,122,122,125,124,122,123,121,121,121,121,120,121,121,121,120,121,121,121,123,122,119,121,120,120,120,121,122,119,121,122,121,122,122,121,121,120
122,122,122,123,121,121,121,121,120,121,121,122,121,121,121,121,122,122,120,121,121,121,123,122,121,122,121,122,120,121,121,120,120,121,121,121,121,121,121,119,121,122,122,122,122,122,123,124,120,121,121,122,121,120,121,119,121,121,121,122,121,120,120,119,119,122,121,122,122,121,121,121,121,121,121,122,121,122,120,119,121,120,121,121,121,121,122,120,120,122,121,122,122,122,120,120,122,122,121,122,121,121,121,123,120,120,120,121,121,121,122,119,120,121,121,122,122,122,121,119,122,121,121,121,120,121,121,120
119,120,121,121,120,120,121,121,121,122,122,122,121,121,121,121,120,122,120,121,121,121,122,121,121,121,120,121,121,121,122,121,121,122,121,121,121,121,122,121,120,122,120,121,121,121,122,120,120,121,120,121,121,121,122,120,121,122,121,122,121,120,118,120,121,122,121,122,122,122,123,119,121,121,122,122,122,121,121,121,120,122,121,121,120,120,122,120,120,122,121,121,120,121,121,120,122,121,120,121,121,121,121,121,121,122,121,122,121,122,122,121,121,122,121,121,121,122,122,120,122,121,121,122,121,121,121,119
118,121,121,122,121,121,122,120,121,121,120,121,121,121,122,121,121,121,120,122,121,121,122,120,120,121,121,122,121,121,122,120,121,122,121,122,122,121,122,122,120,121,121,122,121,121,120,119,120,121,121,122,121,121,120,119,121,121,121,122,121,121,126,123,121,122,120,122,121,121,118,119,120,122,121,121,120,120,121,119,120,122,121,122,122,122,123,120,120,121,121,122,121,121,121,120,120,121,121,122,122,121,120,120,120,121,121,122,122,122,122,120,120,121,120,121,121,121,122,120,120,121,120,121,121,121,122,121
119,120,121,122,121,121,120,119,120,121,121,122,121,121,121,120,120,121,122,122,121,121,123,120,122,122,121,123,122,121,122,121,121,121,120,121,121,121,121,121,121,121,120,121,121,121,121,120,120,121,120,121,121,121,121,120,120,122,120,121,121,121,122,121,122,121,120,121,121,121,122,121,120,122,121,120,120,121,121,120,121,122,122,122,121,120,121,121,120,121,121,122,121,120,121,120,121,122,121,121,121,120,119,120,120,122,121,122,121,121,122,119,122,122,120,121,121,122,124,123,121,122,121,121,121,121,119,119
120,121,120,122,121,120,120,120,121,122,121,121,120,120,121,119,120,121,120,121,122,124,131,124,122,121,120,121,121,121,119,122,120,122,122,122,121,121,121,119,122,121,120,121,121,121,122,121,120,122,121,122,122,121,120,120,121,121,121,122,121,121,122,121,121,122,122,123,121,121,122,121,121,122,121,121,120,121,121,121,120,122,121,122,121,121,122,119,121,121,122,121,121,121,120,121,120,122,121,122,121,120,121,120,121,121,120,121,121,121,122,121,120,121,121,122,122,122,122,120,120,120,121,122,121,122,121,121
121,122,121,122,121,120,120,120,121,122,121,122,121,120,122,121,121,122,121,121,121,121,122,121,120,122,121,122,121,120,121,119,121,122,121,121,120,120,121,121,121,122,121,122,122,122,122,120,121,122,121,122,122,122,120,121,119,121,121,122,121,119,120,118,120,121,121,122,121,121,125,120,121,122,121,122,122,122,119,120,120,121,121,122,120,120,120,119,120,121,121,122,121,120,121,120,121,122,120,121,121,121,121,121,121,121,120,121,121,121,122,120,120,121,122,122,121,121,121,121,121,122,121,122,122,121,121,121
119,121,121,122,122,122,122,119,121,121,121,121,120,121,120,120,120,121,122,122,121,120,119,119,121,121,121,122,121,121,122,121,122,122,120,122,121,122,122,121,120,122,121,121,121,121,121,121,121,121,121,122,121,121,122,120,120,121,121,122,122,122,121,120,120,122,121,122,122,122,120,120,120,121,120,122,121,122,121,120,120,121,121,122,122,122,123,120,121,122,122,122,121,120,120,121,120,121,120,122,121,121,121,121,121,121,120,121,121,121,123,122,121,122,122,122,121,121,120,120,122,122,121,123,122,121,124,120
120,122,121,122,122,121,122,122,120,120,121,122,121,120,119,119,121,122,121,122,121,120,121,119,121,122,122,122,122,121,123,122,121,122,121,121,120,120,120,120,121,121,120,121,121,121,123,120,122,122,121,121,121,121,122,121,121,122,121,122,121,121,120,120,121,121,121,121,120,119,119,120,120,122,121,122,122,121,121,119,120,121,121,122,121,121,122,120,121,122,120,121,121,121,123,121,124,122,122,122,122,120,118,119,118,121,122,122,120,120,120,120,121,120,120,122,121,121,123,120,120,121,121,122,121,121,120,120
121,122,121,122,121,121,120,120,120,121,121,121,120,120,121,121,121,122,121,121,121,122,123,120,121,121,121,122,121,121,121,121,120,122,121,122,122,122,122,121,122,122,121,121,121,121,122,120,121,122,120,121,121,121,122,121,120,121,121,121,121,121,121,120,120,120,120,121,120,121,120,121,120,121,121,122,121,121,122,120,120,121,121,122,121,121,122,121,121,123,121,121,121,121,121,121,120,121,121,122,121,121,121,119,120,121,121,122,121,121,122,120,120,121,121,122,120,120,118,119,120,122,121,121,121,120,118,119
121,121,121,122,122,122,126,121,120,122,121,122,121,121,121,120,121,122,121,122,120,120,121,120,121,121,120,121,121,121,122,121,121,122,122,122,121,120,121,120,122,122,121,121,121,121,122,121,120,120,120,121,121,121,121,120,121,123,121,122,121,122,122,122,120,121,121,122,121,121,122,122,120,121,120,121,121,121,121,120,124,122,121,122,121,121,123,121,118,121,121,122,121,121,120,120,121,121,120,121,121,121,122,122,120,121,121,122,121,120,121,118,121,122,122,122,121,121,122,121,121,122,122,122,121,121,120,120
120,122,121,122,122,121,120,120,121,122,121,121,120,120,123,120,120,121,121,122,122,122,121,120,120,121,121,122,121,121,119,119,121,122,121,122,121,121,120,121,120,122,122,122,121,120,121,120,122,122,121,122,121,121,121,122,121,122,122,122,121,121,122,121,121,121,120,121,121,121,121,121,120,121,120,121,121,121,121,120,120,120,120,121,121,121,122,121,121,122,121,123,122,122,123,120,121,122,121,122,122,120,119,119,120,121,121,122,121,121,123,120,120,121,120,122,121,121,121,120,121,121,121,122,121,122,122,121
120,121,121,122,122,122,121,121,120,121,120,122,121,121,122,120,121,121,121,122,122,121,120,120,120,122,121,122,121,120,120,120,121,121,120,122,122,122,121,121,120,121,121,121,120,120,120,121,121,122,121,121,121,121,122,121,120,122,121,122,121,120,120,119,121,122,121,122,121,120,121,122,122,121,121,121,121,121,122,121,120,121,121,122,121,121,120,119,120,121,121,123,122,122,121,120,120,122,122,122,121,122,121,120,120,121,121,121,120,121,122,120,121,122,121,122,121,120,120,120,122,122,121,122,121,122,124,122
121,121,121,122,121,122,121,121,121,121,120,121,121,121,121,120,120,121,121,122,121,121,122,120,120,122,121,122,120,120,120,119,120,121,121,122,121,121,122,121,121,120,120,122,121,121,122,120,120,121,120,121,120,121,122,120,120,121,121,122,121,120,120,120,121,121,121,122,122,121,121,119,120,121,121,121,121,121,122,120,120,122,121,122,121,122,123,121,120,121,122,122,121,121,121,120,122,121,120,122,121,121,121,120,121,122,121,122,121,121,122,121,121,121,120,122,121,121,122,120,120,122,120,121,121,121,122,120
121,122,120,121,121,121,120,121,121,123,122,122,121,122,123,121,121,121,120,122,121,121,122,121,121,122,122,123,121,121,119,120,120,121,121,122,121,121,121,120,121,122,121,122,121,121,123,121,120,121,121,122,122,122,122,121,121,121,121,122,121,121,121,120,120,120,120,122,122,121,120,119,120,121,121,122,121,121,122,120,121,122,121,122,121,121,122,121,121,122,121,122,121,121,121,120,120,120,120,122,121,121,121,120,120,121,121,121,120,121,121,120,122,122,122,123,121,121,122,122,122,122,121,121,121,122,118,122
119,121,121,122,120,119,118,119,119,120,120,121,121,122,123,119,123,122,122,124,123,123,123,122,120,121,121,123,121,118,114,120,121,121,120,119,121,121,118,118,118,121,120,120,120,121,125,115,121,122,122,127,122,123,128,127,121,121,121,124,121,124,143,120,118,119,118,117,117,118,118,120,123,125,128,132,128,121,94,120,118,119,118,128,119,117,129,116,125,123,119,114,120,125,118,133,117,118,118,90,118,120,140,117,123,123,118,122,130,127,124,127,118,120,123,137,115,114,74,109,121,123,109,104,128,121,162,126
118,120,126,114,121,114,32,105,122,119,121,131,122,140,84,117,118,116,126,124,115,140,241,141,125,119,112,140,125,115,109,123,125,135,146,109,130,154,209,126,115,114,111,115,113,108,48,100,120,120,109,127,125,128,197,130,128,121,124,113,157,147,72,127,118,113,115,122,114,115,127,107,121,111,118,118,120,122,124,142,117,101,118,119,112,118,0,111,122,86,120,121,121,122,0,130,119,87,121,120,120,125,0,120,120,101,119,126,122,109,0,128,125,113,126,114,132,141,0,130,118,122,118,129,120,94,7,124
115,128,116,119,115,120,17,108,118,126,126,138,122,127,67,121,128,128,106,108,126,131,107,146,114,123,120,122,108,105,50,106,121,135,117,131,133,123,56,111,123,125,135,125,126,134,125,124,128,142,125,136,126,148,137,144,120,128,118,117,116,108,108,122,122,129,125,131,117,133,86,105,123,111,120,108,131,120,122,141,116,5,123,134,116,107,120,109,121,0,123,118,134,120,130,119,122,0,122,121,116,117,109,126,116,0,124,121,116,125,113,108,122,0,122,119,117,126,114,120,117,0,120,115,118,118,98,116
121,0,113,80,124,121,112,108,119,0,128,136,122,121,113,127,116,42,117,118,115,115,122,110,119,75,125,145,125,124,114,117,123,94,119,110,119,114,89,124,120,105,122,134,125,129,133,121,122,112,128,128,121,115,145,118,119,114,113,117,120,119,114,121,114,116,129,115,115,113,65,94,123,118,120,110,123,118,98,122,120,120,123,124,122,123,139,119,118,120,114,125,121,120,106,115,115,120,116,123,120,119,109,120,125,120,124,125,119,122,137,130,118,119,120,120,120,116,129,114,121,121,122,123,119,128,121,123
124,120,121,133,120,121,69,123,119,120,119,117,120,109,102,117,123,121,120,126,120,127,136,138,122,122,121,124,116,116,106,123,117,120,121,98,123,131,98,114,123,121,127,127,128,120,107,119,118,121,120,119,121,119,165,123,123,121,128,120,120,120,125,127,119,120,122,135,123,125,103,118,118,121,122,109,112,114,136,115,119,121,126,118,125,112,134,118,118,121,108,120,117,123,115,122,118,120,116,116,119,114,91,119,121,121,128,125,124,131,170,141,123,121,113,124,124,130,153,142,121,122,120,120,119,121,104,123
120,122,124,122,120,108,57,115,120,122,120,120,120,129,151,120,118,121,121,120,118,117,141,119,119,121,120,125,129,104,108,120,121,121,117,115,122,132,112,116,121,122,120,121,131,107,143,122,122,122,123,118,123,116,138,116,118,121,123,121,121,117,124,119,121,121,119,123,123,126,119,128,118,121,121,123,120,118,87,121,121,121,119,117,125,118,119,115,125,121,122,122,120,122,86,136,119,122,120,119,120,113,99,119,116,122,115,120,119,114,104,114,119,120,118,122,120,125,142,123,119,121,118,124,122,120,129,117
124,121,121,122,121,126,101,121,117,122,116,118,117,114,146,127,120,121,120,123,122,126,137,113,119,121,122,122,123,129,136,127,122,121,124,117,119,115,84,112,124,121,124,119,122,117,113,122,119,121,117,119,120,121,131,117,121,122,124,128,120,117,110,118,120,121,120,123,120,121,88,120,118,121,116,114,118,107,122,118,121,120,121,122,121,122,135,120,120,121,119,129,118,111,98,119,120,121,127,121,121,122,100,122,120,122,116,124,119,125,135,114,122,122,111,120,119,122,119,120,117,121,115,117,118,121,102,113
124,121,119,123,123,143,134,125,121,121,119,118,120,119,142,122,118,121,119,116,122,125,127,116,124,121,119,118,120,118,83,123,123,120,122,122,101,143,87,132,117,121,120,126,122,121,98,121,116,122,119,113,120,123,121,111,122,122,123,127,125,125,94,117,122,121,119,120,115,124,92,121,116,121,121,119,119,119,120,118,121,122,121,111,117,120,135,119,123,122,120,128,120,122,123,123,120,120,117,105,123,125,103,122,122,122,131,133,117,118,121,117,122,121,118,119,120,125,136,123,122,121,125,118,122,123,106,121
119,121,119,117,122,119,110,120,124,121,126,96,122,124,136,133,120,121,123,131,120,122,128,119,119,121,128,115,119,115,123,118,118,121,119,122,123,126,124,119,124,122,122,121,123,122,126,123,118,122,121,117,119,114,131,116,120,122,123,131,126,119,111,117,121,122,123,119,121,117,84,129,120,121,120,122,121,132,135,107,118,241,119,122,124,114,150,116,120,240,116,123,121,123,105,127,116,242,119,117,115,108,94,101,125,242,123,122,128,122,106,140,126,242,121,123,131,132,113,130,115,241,117,131,124,111,116,111
122,241,116,95,131,124,118,114,125,164,128,120,119,128,119,130,121,132,121,134,120,118,119,123,115,125,119,116,121,115,121,112,121,124,119,123,125,134,120,145,124,123,123,124,120,120,120,129,117,122,125,120,119,120,120,109,121,122,120,118,123,123,120,129,122,121,128,143,122,126,120,121,121,122,118,113,119,123,124,116,120,122,126,121,120,103,121,118,121,122,128,124,122,124,114,115,120,121,124,124,124,117,115,121,120,121,123,117,123,129,126,113,121,122,115,115,120,123,157,131,119,121,119,121,122,127,127,125
118,122,116,98,122,130,106,114,118,122,121,129,118,125,113,120,121,121,116,119,128,114,117,109,130,121,122,118,131,150,165,160,117,121,122,127,119,121,114,110,117,122,120,121,117,114,118,118,125,120,119,123,125,142,119,137,117,121,121,123,122,119,119,113,124,122,122,119,121,130,121,126,119,122,121,126,123,119,120,120,119,122,123,114,120,145,121,113,124,122,125,127,122,125,121,131,117,122,122,130,120,127,121,125,117,122,117,105,115,112,121,117,123,122,122,125,119,122,121,117,120,121,120,122,123,125,121,126
119,121,121,117,125,119,121,115,116,121,118,118,101,112,121,117,123,122,120,126,125,126,121,127,121,122,120,122,127,124,121,122,119,121,124,117,124,127,121,118,122,115,122,126,124,129,121,123,125,86,129,125,122,117,121,119,121,95,129,118,121,121,122,121,121,89,117,126,126,120,121,122,124,96,125,121,121,125,121,123,119,102,121,120,118,117,121,116,121,87,119,121,123,127,121,122,119,86,117,106,124,121,121,119,122,95,124,128,127,125,121,127,120,97,119,123,124,129,120,120,123,118,117,121,121,123,121,126
119,108,121,123,123,109,121,120,120,105,125,112,117,130,121,122,120,102,114,122,119,123,121,113,128,120,129,137,133,139,120,156,120,97,125,123,125,122,122,124,119,102,118,127,119,121,121,121,114,111,118,121,118,116,121,114,124,102,124,130,126,137,121,132,117,97,121,113,122,111,121,116,120,118,128,126,118,118,121,117,122,101,123,122,122,124,121,122,121,111,120,123,122,97,122,123,119,104,116,124,114,118,121,112,119,113,128,116,117,109,121,111,118,111,114,115,113,114,121,111,121,119,117,102,129,139,121,119
121,111,126,125,118,108,121,120,121,103,121,133,129,145,121,122,119,112,132,137,118,114,121,117,117,126,114,131,125,120,121,116,118,108,115,120,115,109,121,115,123,109,131,126,124,130,120,130,120,110,117,114,118,116,121,120,117,102,122,107,117,102,121,120,119,85,117,108,120,97,122,103,121,56,124,119,126,113,122,122,119,15,123,128,114,105,121,114,124,4,126,123,119,128,121,120,119,0,118,113,117,103,121,118,119,13,122,134,125,119,121,119,124,0,123,116,118,104,122,122,116,0,119,122,118,134,121,119
116,0,121,123,121,122,121,105,130,0,126,112,117,111,121,138,121,0,118,124,119,116,122,123,119,0,138,131,134,125,120,119,118,13,122,119,130,100,122,119,121,57,115,120,114,143,121,124,125,84,119,120,127,128,122,127,116,99,129,120,119,114,121,117,118,107,115,120,119,118,121,119,124,113,133,122,123,113,122,121,117,117,114,115,116,122,122,120,123,118,121,113,117,118,121,125,120,119,121,109,123,124,121,126,119,118,119,122,120,118,121,115,123,120,121,126,125,120,121,125,121,119,114,119,129,121,122,119
122,121,122,121,119,127,121,126,114,121,123,118,115,103,121,104,125,120,120,121,120,141,121,129,119,121,119,124,117,116,122,116,120,120,133,114,121,120,121,119,119,120,121,122,121,122,120,119,121,121,119,120,117,152,120,125,122,121,124,126,123,127,120,130,119,121,113,120,119,107,121,116,117,120,130,118,116,110,121,111,123,121,119,136,132,133,120,144,115,121,122,122,114,110,121,110,125,120,123,125,129,143,121,124,120,120,122,119,120,123,121,137,119,121,125,120,118,124,121,110,119,121,144,137,122,109,121,118
124,121,121,126,125,141,121,126,119,121,117,121,117,116,121,116,122,120,121,129,122,121,121,110,118,121,119,118,110,118,121,124,121,122,129,123,114,116,122,113,122,121,118,125,125,124,121,123,122,121,116,120,121,127,121,126,119,121,122,114,117,114,121,115,118,121,119,125,112,121,121,113,121,121,130,122,125,122,121,119,121,121,126,126,121,135,120,121,121,121,123,123,122,126,120,121,117,122,118,118,117,104,122,114,120,121,123,123,122,121,121,119,120,121,119,124,123,120,121,116,123,121,119,118,124,112,121,119
121,121,122,121,119,129,121,119,119,122,119,118,132,117,122,118,123,120,128,127,136,133,121,130,119,121,122,121,120,127,120,120,118,121,120,113,105,78,121,113,124,122,121,117,125,123,122,120,118,122,120,127,116,118,121,117,123,121,124,123,133,140,121,130,123,121,130,120,119,126,121,116,119,121,117,119,118,119,121,119,121,121,121,125,124,108,121,117,119,121,113,119,116,104,122,126,120,122,133,112,126,129,121,123,126,121,118,126,117,107,121,117,113,121,124,121,126,112,121,108,123,121,115,120,138,100,122,126
122,121,120,134,131,170,120,126,118,121,117,106,105,116,121,115,122,122,123,125,122,142,121,128,110,121,121,121,128,96,121,111,131,120,116,124,127,130,121,128,119,122,120,122,117,113,121,126,123,122,120,110,119,146,121,119,117,121,120,121,112,95,122,119,129,121,129,129,126,175,120,134,118,121,122,118,120,104,121,117,119,121,117,115,121,117,121,123,122,122,122,120,121,109,121,122,118,121,119,121,120,120,122,117,118,120,117,119,119,120,122,116,120,121,121,119,121,130,121,123,122,122,128,115,123,128,122,115
118,121,122,124,129,123,121,119,122,122,118,119,115,126,121,116,115,121,118,122,115,115,122,119,122,121,120,108,103,76,123,120,117,122,113,115,121,102,121,113,126,121,128,122,128,102,121,131,117,122,111,125,133,111,121,117,116,121,121,122,121,118,121,113,123,121,118,120,115,116,121,117,120,121,115,119,119,123,121,108,119,120,129,124,139,116,122,124,115,121,123,130,114,114,121,116,126,122,119,123,122,137,121,118,115,121,120,111,111,122,121,120,116,121,117,115,122,114,121,127,121,121,112,111,123,120,122,115
121,122,135,129,117,132,121,120,117,120,124,121,124,126,121,116,122,121,117,128,123,94,122,124,118,121,120,123,126,121,121,121,121,122,119,121,101,116,121,119,120,121,123,120,124,139,121,119,120,121,117,118,122,118,139,120,120,121,122,123,123,119,113,116,121,122,119,118,122,107,116,123,123,121,119,119,97,110,119,119,117,122,120,121,122,124,119,116,117,122,123,120,118,132,120,119,122,122,120,119,117,115,121,125,123,122,129,134,127,138,121,125,119,122,119,117,114,115,121,117,120,122,121,123,119,118,121,116
127,121,123,120,124,126,121,116,120,122,122,128,114,119,121,131,121,121,126,131,129,89,121,118,120,121,121,123,121,133,120,120,121,122,118,119,123,115,121,122,122,121,123,125,126,132,121,120,120,121,123,117,122,121,122,122,122,121,123,135,119,121,120,122,119,121,118,118,119,112,121,121,120,121,120,108,124,104,122,117,122,122,121,115,116,115,121,118,120,122,122,124,115,115,121,117,120,121,120,119,126,133,121,123,122,122,121,132,120,137,121,121,123,122,123,122,136,108,126,117,119,121,119,119,118,106,120,122
120,122,120,120,124,107,121,119,119,120,121,123,115,133,121,118,121,121,121,125,119,119,120,120,121,121,121,122,126,125,120,122,120,121,120,122,125,122,121,119,120,121,119,119,118,110,121,122,122,121,119,119,121,117,121,112,121,122,120,122,124,120,122,127,121,122,120,122,123,140,121,115,119,187,124,123,123,116,121,121,120,242,117,120,121,115,121,117,122,242,123,148,127,123,121,122,120,242,118,125,120,124,121,119,121,241,118,120,118,123,121,119,121,241,118,123,125,131,120,122,118,242,121,105,109,128,121,110
126,242,123,127,124,122,121,129,120,204,117,120,121,122,121,117,120,141,121,117,118,113,121,115,121,127,119,123,104,117,120,125,119,124,119,127,120,137,121,119,119,123,129,111,131,118,121,117,118,122,122,132,130,116,121,133,118,122,120,124,118,113,121,115,124,123,121,116,122,166,121,132,119,122,119,129,108,112,121,111,121,122,120,124,122,124,121,125,115,121,117,119,129,140,121,115,122,123,120,123,127,109,122,122,122,122,118,119,119,123,121,120,119,121,117,120,122,119,121,118,118,121,116,123,121,112,121,122
124,122,124,118,127,113,121,123,119,121,118,121,119,117,121,118,119,122,124,129,119,108,121,118,120,122,112,113,121,123,120,119,121,122,122,113,120,110,121,121,123,121,120,132,123,126,121,125,119,122,117,116,117,119,121,119,117,122,120,118,119,115,121,115,124,122,124,135,123,115,121,128,119,122,120,119,118,120,122,115,120,121,119,121,117,118,121,127,121,121,122,124,120,124,121,122,119,121,119,122,136,118,121,119,123,122,120,120,124,116,121,131,118,121,123,126,123,129,121,116,122,122,120,115,117,117,121,119
117,122,130,121,112,109,121,117,122,122,121,124,121,130,121,119,123,122,124,121,120,122,121,122,120,122,117,121,119,99,122,119,118,121,118,121,120,119,120,116,121,122,119,118,116,111,121,119,120,121,118,122,114,121,121,116,120,121,125,121,119,134,121,121,119,122,124,127,119,118,121,117,123,122,121,122,123,146,121,129,120,122,119,125,120,119,121,117,119,121,118,120,102,118,121,124,120,121,119,122,123,123,121,119,121,121,123,125,124,111,121,119,122,121,122,129,118,125,121,122,121,122,124,125,116,106,121,118
121,122,124,123,125,116,121,121,121,122,120,121,125,119,121,121,122,100,121,124,122,119,121,121,119,82,121,119,118,122,120,117,120,99,122,120,107,67,122,124,119,94,118,116,120,144,121,119,123,100,121,121,131,93,122,121,119,99,120,118,141,118,121,123,120,98,122,126,123,120,122,119,119,101,120,122,119,119,125,120,122,99,121,122,120,111,135,119,124,108,122,120,124,129,150,127,118,106,119,125,124,132,126,120,120,115,122,121,121,102,149,118,123,120,118,117,121,124,128,124,121,123,124,132,129,123,114,122
121,112,122,127,120,128,77,122,123,128,121,115,121,110,100,118,119,103,120,126,124,119,111,120,119,103,125,120,117,118,116,118,124,100,126,124,121,125,119,120,120,99,122,123,122,122,119,123,120,102,121,127,118,134,120,120,122,98,122,117,112,94,121,121,121,99,124,137,112,136,121,120,120,109,120,121,135,107,122,122,121,113,117,116,121,119,121,122,121,112,124,135,125,118,121,121,120,122,123,123,129,113,122,118,123,116,118,122,117,104,122,124,119,107,123,122,114,134,121,119,120,108,119,117,103,112,122,118
118,112,121,118,121,127,120,125,119,116,126,131,120,132,121,120,121,116,122,120,119,120,145,118,121,110,121,119,108,105,167,120,122,115,122,121,123,121,181,119,120,117,123,127,120,113,184,117,120,113,125,118,131,95,205,119,120,116,120,122,119,120,145,118,120,125,122,122,126,115,114,118,121,119,121,119,105,131,99,126,121,116,121,127,126,97,53,121,120,116,120,123,118,106,48,119,121,119,119,122,124,133,67,121,120,118,119,121,121,119,93,119,121,128,123,129,119,124,105,120,123,115,119,117,121,97,114,121
117,112,120,119,113,112,117,118,121,112,120,122,120,121,119,121,120,112,114,117,126,111,120,120,122,118,127,118,118,127,121,121,121,121,120,123,131,124,120,123,124,111,123,118,113,133,121,120,117,123,123,120,126,112,121,119,121,109,120,120,113,122,121,112,122,116,119,125,131,140,121,130,119,112,111,119,103,75,122,116,121,120,121,118,125,127,153,119,120,121,120,122,121,119,155,115,121,116,121,120,120,126,131,123,121,123,122,121,121,121,145,120,118,104,116,126,127,119,122,119,122,115,143,129,131,117,99,122
121,121,121,126,121,114,94,123,119,123,129,121,114,121,119,118,119,95,112,123,124,120,100,120,119,120,135,119,121,115,109,122,122,110,121,130,104,145,115,118,121,108,120,126,121,108,118,119,119,114,118,117,109,123,119,116,121,114,128,125,126,113,121,121,120,98,121,124,137,136,164,114,120,89,125,120,123,117,133,117,121,79,122,126,125,115,183,120,127,69,117,120,121,124,84,128,118,19,124,122,124,114,80,119,120,35,128,125,119,127,94,121,118,14,116,113,118,113,93,112,124,0,129,121,126,145,106,139
118,0,123,118,116,110,113,117,120,0,122,125,118,107,118,117,123,0,125,134,126,119,119,119,120,0,120,123,120,124,120,119,120,0,120,124,118,119,121,121,118,14,136,126,127,131,121,116,124,59,119,122,117,117,123,129,121,85,122,121,126,117,120,119,125,101,123,124,119,132,121,131,120,108,117,117,86,118,130,119,120,114,122,123,133,119,165,117,121,116,122,120,126,129,167,120,119,118,117,123,116,115,153,119,120,118,120,124,121,119,149,116,124,119,130,122,123,119,103,131,120,120,116,127,119,118,85,118
120,120,117,123,135,124,72,119,121,121,116,118,121,118,97,121,122,120,124,130,123,121,110,124,117,121,118,114,115,141,115,114,121,121,122,117,134,129,118,127,117,120,110,118,118,107,120,117,121,121,118,121,120,128,120,124,120,120,121,123,123,118,121,119,121,121,117,118,118,121,121,120,121,122,123,118,117,104,122,123,121,121,125,120,116,121,121,119,122,120,127,134,116,132,121,124,118,121,117,117,95,112,121,120,123,121,121,121,119,117,121,118,119,121,122,122,123,121,163,116,120,120,118,121,122,122,126,121
122,121,123,123,118,119,141,118,122,121,118,114,123,121,195,120,119,121,121,124,118,127,141,118,120,122,125,127,121,125,120,124,122,121,126,122,121,123,118,115,121,121,122,121,121,123,82,122,119,121,118,126,121,120,59,121,119,121,126,125,124,121,86,118,121,121,120,127,128,128,103,120,124,121,126,126,121,113,113,125,120,121,130,124,122,126,117,123,120,121,119,122,113,97,119,118,121,122,121,122,123,124,120,121,120,121,118,118,114,141,120,119,123,235,118,120,111,103,121,128,122,241,119,121,128,113,121,118
120,240,115,116,119,120,121,120,119,242,121,122,123,121,121,117,122,241,118,109,121,119,121,124,120,242,115,121,117,150,120,120,121,242,118,123,120,126,120,122,120,242,126,122,131,109,121,120,121,174,120,122,123,120,122,122,121,135,120,123,121,128,121,120,122,125,121,120,121,137,121,123,122,122,119,122,125,115,121,124,119,122,119,121,120,121,121,118,120,122,117,119,118,124,121,119,121,122,121,124,119,121,121,121,121,121,120,121,122,126,121,118,121,121,120,121,121,124,121,129,120,121,118,121,129,121,121,125
119,121,135,124,119,116,121,118,121,122,118,120,118,116,121,118,120,122,124,122,120,122,121,122,120,121,120,117,121,119,121,116,125,121,115,128,122,119,122,127,119,122,129,124,121,118,120,119,113,0,108,119,120,117,121,107,126,0,136,126,135,123,121,134,122,14,125,117,117,119,121,121,119,37,119,122,120,114,122,119,121,19,131,127,106,114,121,119,123,33,124,121,124,146,120,118,119,5,123,121,124,134,120,119,119,3,122,125,114,117,120,119,120,0,118,119,130,111,122,121,118,1,126,118,115,109,121,119
122,34,127,118,120,127,121,120,121,62,116,114,115,121,122,122,120,35,120,122,120,115,121,118,120,25,113,123,120,120,122,130,120,25,118,123,120,118,121,116,121,66,122,119,122,126,122,122,124,87,122,121,121,106,122,125,121,84,119,121,122,120,121,121,119,102,121,121,122,127,121,122,120,126,123,132,130,101,122,121,121,148,116,111,128,115,121,120,121,169,117,112,121,126,121,121,119,162,119,116,117,116,121,116,120,164,125,125,143,135,120,118,122,165,119,123,128,101,122,120,119,158,120,117,124,136,121,117
121,178,116,123,119,111,121,117,123,184,123,121,120,106,121,122,119,153,117,118,114,113,122,120,119,150,125,122,114,112,122,121,121,148,116,118,119,116,121,121,120,136,112,119,104,114,121,118,123,121,126,131,123,110,121,123,119,115,120,121,119,121,121,119,120,81,119,119,115,115,121,123,121,111,139,121,121,122,121,120,119,116,126,121,118,125,122,118,121,129,119,121,117,107,122,121,120,129,118,120,122,122,121,119,120,133,125,121,121,125,121,119,118,176,126,116,123,117,121,117,122,135,127,133,126,136,121,120
121,98,119,121,118,122,121,122,120,99,118,122,121,118,121,121,119,87,121,122,127,126,120,115,124,132,123,119,122,127,121,132,120,143,118,116,116,125,121,119,121,143,119,119,124,117,122,121,120,138,125,128,119,119,121,120,121,149,121,120,125,131,121,125,119,169,132,122,109,108,121,116,121,135,109,124,128,126,121,121,121,145,132,112,116,119,121,119,120,142,125,124,121,125,120,125,120,132,108,121,124,118,121,121,122,133,114,123,118,117,121,120,119,204,130,124,116,118,121,122,122,183,117,108,124,114,122,123
120,193,124,128,120,121,122,115,122,241,116,116,127,121,121,132,116,240,113,110,115,138,121,104,123,241,119,138,124,123,121,133,121,242,120,112,103,113,122,120,122,241,122,125,124,127,144,118,118,162,120,121,111,121,112,123,121,130,118,119,130,130,117,124,119,124,114,124,116,116,118,113,117,122,125,116,117,115,121,112,120,122,125,129,117,127,121,124,120,123,132,109,117,117,121,117,119,122,134,119,112,138,120,117,122,121,112,124,125,118,121,126,121,122,128,124,123,127,121,119,119,15,118,134,116,119,121,119
123,7,128,99,132,132,120,122,122,27,133,127,113,134,121,120,119,36,119,124,135,118,121,118,122,44,121,121,121,120,121,115,122,80,121,123,125,135,121,126,121,98,121,135,115,117,122,121,121,87,120,121,120,112,121,114,120,95,116,127,127,132,121,113,118,109,118,118,128,103,121,112,121,102,121,121,124,127,121,120,118,109,123,126,120,124,121,119,118,112,110,114,120,111,122,114,118,115,132,138,103,114,122,116,121,95,116,109,131,109,121,120,118,98,117,122,122,129,121,117,120,115,129,117,121,123,121,124
124,114,115,119,125,110,121,122,120,114,130,129,120,115,121,118,121,120,121,130,124,125,122,121,115,91,121,124,131,117,121,112,124,49,119,126,123,122,121,135,118,40,127,113,123,109,121,116,117,5,119,126,120,113,121,103,123,0,119,121,123,133,120,122,118,0,119,112,110,123,122,115,120,0,132,146,123,162,120,117,126,0,118,128,125,131,121,126,121,0,125,123,121,116,121,122,118,0,122,123,121,122,121,113,121,0,125,105,112,118,121,120,122,20,119,105,123,118,121,119,125,63,127,128,121,127,121,128
118,87,122,118,120,115,121,114,117,102,119,121,120,122,121,112,122,110,118,112,119,123,121,122,123,115,122,103,125,124,122,118,120,116,121,123,126,133,121,134,122,118,118,119,116,109,122,116,122,242,119,121,121,121,121,120,117,242,118,132,126,118,121,122,124,242,118,116,119,113,121,120,119,241,111,107,117,122,121,117,123,241,119,124,122,113,121,126,122,242,116,115,100,141,121,120,121,243,118,121,115,107,122,117,118,229,117,133,123,124,121,122,118,146,122,113,128,119,121,114,119,128,127,138,120,119,121,110
125,124,117,109,121,121,122,120,122,123,118,137,116,113,122,117,112,15,118,120,119,118,121,113,120,0,110,108,116,115,122,117,124,0,120,120,124,136,121,129,118,3,104,114,121,118,121,118,124,47,141,136,128,123,121,124,118,61,135,128,117,122,121,118,122,88,118,124,128,127,121,122,121,85,121,119,116,117,121,119,118,66,119,121,121,95,122,113,122,76,120,116,112,127,121,125,122,91,119,120,117,116,122,141,123,143,122,123,130,148,121,127,123,143,114,123,117,115,121,122,118,125,122,129,125,119,121,116
120,126,109,97,119,130,121,119,119,104,117,119,118,124,122,118,120,104,120,117,115,116,121,113,127,116,129,123,120,139,120,141,112,111,128,126,112,107,121,108,118,94,115,124,122,126,121,116,123,121,127,112,124,120,122,119,122,124,118,97,89,128,121,123,122,116,139,124,113,98,122,120,118,124,120,127,113,119,121,120,116,134,116,103,115,113,121,108,121,123,116,124,124,130,121,124,121,82,118,114,119,120,121,119,120,83,121,124,125,131,121,126,120,93,121,124,122,126,122,129,123,115,125,124,121,122,121,122
118,134,118,118,121,119,121,108,122,120,119,139,123,121,121,124,118,106,117,117,120,122,122,117,125,127,135,151,134,124,120,126,125,142,124,133,119,122,121,122,113,156,112,119,111,108,121,106,122,158,123,107,121,114,121,116,125,119,121,122,128,149,120,141,116,122,115,118,112,110,121,116,119,167,123,127,118,119,121,125,130,179,125,93,138,133,121,122,122,137,119,122,119,123,121,130,119,139,125,148,124,127,121,118,127,218,115,90,125,128,121,135,122,189,148,171,117,122,121,121,121,111,119,120,120,128,122,112
120,113,123,121,119,119,121,130,119,189,113,103,113,107,122,104,120,130,123,119,124,139,121,137,121,102,118,120,119,116,121,122,117,118,122,143,119,114,121,124,121,88,117,112,116,129,121,117,115,66,113,110,115,110,121,108,127,94,116,132,124,119,120,137,119,99,118,113,120,126,121,110,117,100,127,135,118,129,121,115,125,102,118,119,120,120,121,134,117,115,112,136,126,115,121,120,121,145,127,151,146,110,122,113,121,135,129,98,118,118,121,132,118,116,124,98,114,121,121,118,123,103,122,138,121,119,121,120
127,109,123,130,112,134,120,138,118,108,124,114,115,113,122,106,123,102,121,132,124,125,121,133,118,116,116,123,115,113,121,101,124,114,130,119,127,129,120,128,124,109,123,122,111,117,122,117,116,109,119,123,118,118,121,115,122,113,110,93,110,112,121,119,126,122,118,86,119,124,121,120,117,115,113,114,106,108,122,104,127,104,118,94,128,125,121,128,119,110,129,157,130,150,120,142,117,121,109,125,117,111,122,109,119,111,117,123,118,129,121,117,118,121,120,118,115,130,121,124,126,125,131,140,121,113,122,117
118,127,118,134,118,108,121,117,114,121,119,107,119,106,122,97,132,114,124,150,136,159,120,155,117,128,122,114,115,110,121,109,114,124,119,113,88,122,120,113,121,123,127,137,142,121,121,121,121,104,122,109,127,123,121,123,120,120,122,133,124,121,121,119,119,135,118,127,118,123,121,117,122,125,125,116,115,115,122,114,120,137,122,122,131,120,122,118,121,126,123,126,116,119,121,122,119,113,120,138,118,113,121,114,126,131,120,109,127,132,121,114,117,111,116,113,122,104,122,123,119,125,122,138,122,138,120,105
123,110,122,113,134,119,121,121,120,117,121,127,132,110,121,117,117,106,116,112,123,129,121,118,124,117,130,175,122,111,122,121,118,122,120,126,132,112,122,119,116,130,119,125,123,103,122,109,123,116,120,116,118,120,121,124,119,116,120,124,121,120,122,117,118,122,118,116,122,123,121,119,116,127,113,84,114,110,121,113,120,117,122,136,125,126,121,121,117,108,119,120,118,117,121,115,117,120,123,113,119,115,122,115,117,121,116,115,117,120,121,116,118,125,123,154,130,122,121,120,120,110,135,115,129,120,121,111
114,128,110,121,113,102,122,104,138,137,135,122,134,143,120,157,113,137,127,130,127,119,121,114,122,123,120,104,112,112,122,121,121,124,117,115,116,116,122,119,123,128,126,126,119,121,122,116,115,116,122,118,102,117,122,125,127,118,125,134,129,134,121,142,121,121,124,130,116,112,122,116,120,115,120,136,117,114,121,115,123,129,128,128,125,137,121,122,119,99,114,125,112,96,122,122,122,119,123,141,127,129,122,110,122,115,126,138,124,121,121,129,116,103,118,131,117,117,121,125,117,105,116,108,126,119,121,109
123,89,120,93,112,117,121,118,124,86,120,127,122,127,121,127,117,57,132,144,125,119,121,120,120,83,133,143,124,118,121,114,121,76,117,115,120,121,121,119,119,59,127,92,128,159,120,122,116,19,105,127,123,100,122,114,119,0,155,124,130,124,121,120,123,0,116,131,119,128,121,125,112,0,122,111,132,100,122,114,126,0,133,174,131,140,121,137,120,0,132,103,127,116,121,112,118,0,120,113,124,111,121,111,119,26,124,123,124,133,121,128,119,65,118,129,124,117,121,118,120,89,126,127,120,126,121,121
119,103,126,139,107,126,120,115,117,110,123,115,129,119,120,114,134,114,121,152,126,131,120,164,122,117,120,119,122,118,120,123,118,117,119,135,120,125,121,121,121,119,116,90,113,129,121,120,125,120,132,108,118,117,122,118,118,119,111,120,114,121,121,127,119,120,122,110,121,115,121,110,122,120,126,153,118,118,122,121,114,121,108,92,129,117,122,108,121,121,107,93,116,116,121,113,123,121,131,140,116,113,121,112,118,121,119,122,114,137,121,129,127,120,116,117,117,121,122,115,109,121,131,97,117,115,121,87
137,121,138,145,137,146,120,165,114,120,119,121,113,137,121,109,121,120,118,116,114,109,122,112,122,122,123,106,130,136,121,120,118,121,119,118,116,105,121,125,119,120,125,139,135,123,121,104,118,121,119,147,140,110,121,114,120,121,119,122,98,105,122,117,120,121,121,121,128,129,121,111,116,121,114,107,117,123,121,115,125,121,124,115,122,126,121,134,122,121,117,127,107,98,122,124,123,121,123,119,124,128,121,136,118,121,118,120,130,120,121,109,109,121,81,131,119,110,122,123,129,120,144,125,123,129,121,119
131,121,127,116,109,111,121,119,107,122,114,126,124,127,120,123,119,121,110,122,120,120,122,116,123,121,133,111,112,115,121,114,128,122,128,144,135,137,121,125,122,120,115,110,112,109,122,115,117,120,117,111,119,115,122,110,118,121,120,120,120,116,121,120,122,122,121,122,121,120,121,130,123,120,121,121,122,129,121,128,118,121,119,121,121,118,121,117,115,121,118,111,116,115,121,104,124,122,125,138,128,129,121,122,117,122,115,105,117,117,121,109,120,121,121,130,119,123,121,120,122,121,120,122,120,117,121,129
117,121,108,129,108,110,121,114,115,122,106,102,122,125,121,118,131,121,159,165,119,114,121,127,129,121,117,128,118,121,121,121,115,122,113,113,126,132,121,116,115,122,115,119,113,117,122,122,124,121,123,124,124,101,121,129,122,121,124,128,121,122,121,120,119,120,113,108,124,104,122,116,121,121,122,123,117,121,122,119,117,122,121,114,142,114,121,130,122,121,119,121,111,74,123,110,119,121,121,122,111,120,121,117,122,121,121,122,119,122,121,121,121,122,122,121,121,120,121,120,118,121,121,123,122,116,121,121
125,120,120,113,134,130,121,130,120,121,124,137,128,119,121,116,112,122,111,122,120,131,122,113,125,120,122,123,111,121,122,125,122,121,122,121,126,122,121,121,119,121,112,112,123,114,121,119,123,122,130,111,121,117,122,120,117,121,106,138,121,118,121,119,119,121,139,113,119,124,121,118,123,122,119,123,122,118,121,123,119,121,118,123,122,104,121,117,120,121,111,119,135,117,121,122,118,121,126,134,129,126,121,117,118,122,119,118,118,115,121,116,119,122,120,118,115,127,121,126,121,122,117,121,124,125,121,117
119,121,120,121,130,130,120,118,121,121,121,120,93,104,121,119,122,121,119,130,141,129,121,126,119,121,118,115,122,129,121,120,120,121,118,127,114,119,120,119,120,122,123,123,122,114,121,119,124,120,122,132,127,126,121,125,118,120,119,110,120,122,121,125,116,121,124,114,116,119,121,121,122,121,122,127,122,119,121,121,119,121,110,119,116,122,122,113,120,121,129,131,124,121,122,123,119,121,122,100,121,120,121,118,123,121,127,144,124,121,121,119,123,121,125,121,122,120,122,122,119,121,115,119,124,118,121,119
