122,122,120,121,121,121,122,121,121,122,121,122,122,121,121,119,120,122,122,122,120,120,121,120,121,121,121,122,122,121,121,121,119,122,122,123,121,121,122,121,123,122,122,122,121,121,121,121,120,121,120,121,121,121,121,120,122,122,121,121,121,121,121,121,120,122,121,121,120,121,121,120,119,120,121,122,121,120,121,120,121,122,121,122,122,121,121,120,120,121,121,121,121,121,122,121,121,121,121,122,121,121,121,120,120,122,121,122,122,121,121,119,121,122,121,121,121,121,121,120,120,121,120,122,121,121,122,120
120,121,122,122,120,120,121,120,121,122,122,121,121,121,121,121,121,121,121,122,121,121,121,120,120,121,121,122,121,122,122,120,121,122,121,121,121,121,121,121,121,122,122,121,121,121,122,121,120,121,121,122,121,121,121,121,118,122,121,121,121,121,122,120,121,122,121,122,120,120,121,120,123,122,121,121,121,121,122,121,119,121,121,122,121,120,121,120,120,121,120,121,121,121,122,121,121,122,121,121,120,121,122,120,121,122,122,122,122,120,121,120,121,122,121,123,121,121,121,121,123,122,121,122,121,122,122,121
120,122,121,122,122,121,121,120,120,121,121,122,122,121,121,121,122,122,121,121,121,121,122,120,120,122,121,122,121,120,121,120,121,122,122,122,121,121,121,120,121,122,121,121,121,121,122,121,119,120,121,121,121,121,122,121,121,122,121,122,121,121,122,120,121,122,121,121,121,121,121,120,117,121,121,124,122,122,121,119,125,121,121,121,121,121,122,121,119,122,122,122,122,121,122,120,121,122,121,122,121,121,122,121,120,122,121,122,121,120,121,120,121,122,121,122,121,120,121,120,118,120,121,122,121,121,122,120
121,121,121,122,121,121,122,120,120,121,121,122,121,121,122,120,120,122,121,122,121,120,121,120,121,122,121,122,121,121,121,120,120,121,120,121,121,121,122,121,121,122,121,122,122,122,122,121,121,122,121,121,121,121,122,121,119,121,121,122,121,121,121,120,121,122,121,121,121,121,122,121,121,121,120,121,121,121,122,120,120,122,120,121,121,121,121,120,121,121,120,122,121,121,122,121,120,122,122,123,120,121,121,120,121,122,122,122,121,121,122,121,121,122,121,122,121,121,121,120,120,122,121,122,121,121,121,120
120,121,121,121,121,121,122,120,121,121,121,122,122,121,121,120,121,122,121,122,121,122,121,120,120,121,121,122,120,120,121,120,120,121,121,122,121,121,121,120,121,123,122,121,122,122,122,121,120,121,121,122,121,121,121,120,122,122,121,121,121,121,121,121,120,121,121,122,121,121,120,120,117,120,120,121,121,121,121,121,121,121,121,122,121,120,121,120,119,121,121,122,121,121,121,120,121,122,121,122,121,121,121,120,121,122,121,121,121,121,122,120,121,122,122,121,121,121,122,121,120,121,121,122,121,121,121,120
121,121,120,121,121,121,121,121,120,121,120,122,121,121,121,120,122,122,121,122,121,122,122,121,121,121,121,122,121,121,121,120,121,122,121,121,120,121,121,120,121,121,120,121,121,121,122,121,119,119,120,121,121,121,121,121,121,122,121,122,121,120,120,120,120,122,122,121,121,121,121,120,121,121,120,121,121,121,121,121,121,121,120,121,121,121,122,121,121,122,121,122,121,121,122,120,121,121,121,122,122,121,121,119,120,121,121,122,122,121,121,120,120,121,121,122,121,121,122,120,123,122,121,122,121,121,122,121
120,122,122,122,120,120,121,120,121,122,121,122,121,121,121,121,120,121,121,122,121,122,122,120,121,122,121,122,122,122,122,121,121,122,120,121,121,120,121,121,120,121,121,122,121,121,121,121,121,122,121,121,120,121,121,121,121,121,120,120,121,121,121,121,120,120,121,125,122,121,121,120,119,122,120,120,120,121,121,121,123,121,121,122,121,121,121,120,121,121,120,121,121,121,122,121,120,122,122,122,121,120,121,120,120,121,121,121,121,121,120,120,121,122,121,122,121,121,121,121,121,122,121,122,121,121,121,119
120,121,121,122,122,122,122,120,121,122,122,122,121,121,121,121,119,120,120,121,121,121,122,120,121,122,121,122,122,121,121,120,123,122,121,122,121,121,121,121,121,122,121,122,122,121,122,120,120,121,121,122,122,121,120,120,120,121,120,122,121,121,121,121,120,121,121,122,121,121,121,119,121,122,121,122,121,121,122,121,120,122,121,122,121,120,120,120,120,121,121,121,121,121,122,120,121,120,121,122,121,122,121,120,120,121,121,121,121,121,122,120,118,121,121,122,122,122,121,119,122,120,121,121,121,122,121,120
119,121,121,122,121,121,121,120,121,121,121,122,121,121,121,121,122,122,121,122,122,122,122,120,120,122,121,121,121,121,122,120,121,122,121,122,121,120,121,120,120,121,121,122,121,122,121,120,120,121,121,121,121,121,122,121,122,121,121,122,121,121,122,120,120,121,120,121,121,121,121,121,119,121,121,122,122,121,121,120,122,122,121,122,121,121,121,121,120,122,121,121,120,121,121,120,122,121,120,121,121,121,122,121,121,122,121,121,120,121,121,120,121,122,121,121,120,121,121,120,122,121,121,122,121,121,121,120
120,121,121,122,121,121,121,120,124,121,121,122,122,122,121,120,119,120,121,122,121,121,121,120,119,122,121,122,122,122,121,120,120,121,121,122,122,121,121,119,121,122,121,121,121,121,122,121,122,121,121,121,121,121,122,120,120,122,121,121,121,121,121,121,120,121,120,120,121,121,121,120,121,122,121,126,123,121,121,120,122,120,121,121,121,122,122,120,121,121,121,122,121,120,121,120,120,121,121,122,121,121,121,119,120,122,121,122,122,122,121,120,121,122,122,122,121,121,121,121,120,122,121,122,121,120,121,120
120,121,121,122,122,122,121,120,121,122,121,122,122,121,121,120,120,121,121,122,121,122,122,120,124,122,121,121,120,121,122,121,120,121,122,123,121,121,121,121,119,121,121,122,121,121,121,120,121,122,122,122,120,121,121,121,120,121,121,122,122,121,122,120,120,122,121,122,121,121,121,121,121,121,120,121,121,121,122,120,122,120,121,123,121,120,121,120,123,122,121,121,121,122,122,121,119,121,121,122,121,121,121,120,121,122,122,122,121,121,121,121,120,121,121,122,121,120,121,120,121,121,121,122,122,121,120,120
121,122,121,122,121,120,121,120,119,120,121,122,121,121,122,120,122,122,121,122,122,121,122,120,120,121,121,122,121,122,122,120,120,122,121,122,121,120,121,120,121,120,120,121,121,121,121,121,120,122,121,122,121,121,122,120,119,120,120,121,121,121,122,121,122,122,121,121,121,121,121,120,122,121,121,122,121,121,121,121,123,121,120,122,121,121,122,121,121,122,120,121,121,121,122,121,120,122,121,122,120,121,121,120,121,121,120,122,121,121,121,120,121,122,121,122,122,121,121,120,121,121,121,121,120,120,121,120
121,121,121,121,121,121,122,121,120,122,121,122,120,120,121,120,119,121,121,122,120,120,121,120,120,121,121,121,121,122,121,121,120,121,120,121,121,121,121,121,121,122,121,122,121,122,122,120,120,121,121,122,121,121,122,121,120,120,120,121,121,122,122,120,120,122,121,121,121,121,121,120,123,120,121,122,121,122,121,120,119,121,121,122,122,121,121,120,120,122,122,123,121,121,121,121,121,122,121,122,122,121,120,120,122,122,121,121,121,121,121,120,121,122,121,122,121,120,120,120,119,120,120,121,121,121,121,120
122,122,121,123,121,121,121,121,120,122,121,121,120,120,121,120,121,122,121,122,121,120,121,121,121,121,120,122,121,121,122,121,119,121,121,122,122,121,120,120,121,120,120,121,121,121,122,120,119,120,120,121,120,121,121,120,121,123,121,121,121,121,121,120,121,122,121,122,122,122,121,120,122,122,121,121,121,121,121,121,120,121,121,122,122,121,122,120,121,122,121,121,120,121,121,120,120,122,122,122,121,120,121,120,120,122,121,121,120,120,121,120,121,122,121,122,121,121,122,120,120,121,121,122,121,121,122,120
120,122,121,122,121,121,121,120,120,121,121,122,122,122,121,120,121,121,121,122,121,120,121,120,120,121,121,122,121,121,120,119,120,121,121,121,121,121,122,120,121,121,121,121,121,120,121,120,121,121,121,122,121,122,121,119,120,122,121,122,121,120,121,120,121,122,120,122,121,121,121,121,121,122,121,122,121,121,122,121,121,121,121,122,121,120,121,120,120,121,120,121,121,121,122,120,120,121,121,122,121,122,121,120,120,121,121,121,120,121,121,120,119,122,121,122,121,121,121,121,124,121,120,121,121,121,121,121
119,121,121,122,121,122,122,120,122,121,121,121,121,122,122,121,121,123,122,122,122,121,121,121,120,122,121,122,121,120,121,120,121,121,120,121,121,121,122,120,120,122,121,122,122,120,121,120,121,121,121,122,121,121,122,120,122,122,121,122,121,120,121,120,119,122,120,120,120,121,121,120,119,120,121,122,121,122,121,120,121,122,121,121,121,121,121,121,120,120,120,121,121,121,122,120,120,122,121,121,121,121,122,120,121,122,121,122,121,120,121,120,120,121,121,122,121,121,120,120,122,122,121,122,122,121,122,121
119,121,121,122,121,122,122,120,122,120,121,122,121,121,121,119,121,122,121,123,121,121,121,120,120,122,122,122,121,121,121,120,119,121,121,122,122,121,121,119,122,122,122,122,120,121,122,121,120,121,121,122,121,121,121,120,120,122,121,122,122,121,121,120,121,123,122,121,120,121,121,120,120,121,121,122,122,121,121,120,120,121,121,122,122,121,121,119,121,121,120,122,121,121,121,121,120,121,120,121,120,121,121,120,122,122,122,121,121,120,121,121,121,121,120,122,121,121,122,120,120,122,122,122,121,120,121,120
122,122,121,122,121,122,122,120,121,122,121,121,121,121,121,120,120,122,121,121,121,121,121,120,121,121,120,122,121,121,122,120,121,121,122,122,122,121,121,121,120,123,121,121,120,120,121,120,120,122,121,122,120,120,121,120,121,121,121,121,121,121,122,121,120,121,121,122,121,121,120,120,120,121,120,122,121,121,121,120,121,121,121,122,121,121,121,120,120,121,121,122,122,121,120,120,120,121,120,122,122,121,122,120,121,121,121,122,122,122,121,120,121,121,121,122,121,121,121,119,121,122,122,121,120,120,121,120
122,121,120,121,121,121,122,121,121,121,121,122,121,120,121,120,120,121,121,122,121,120,120,120,120,121,120,121,121,121,121,121,120,121,120,121,121,121,121,121,121,120,121,122,121,121,121,120,120,121,121,122,121,121,122,120,122,122,122,121,120,121,122,121,120,121,120,122,121,121,122,121,119,120,121,122,122,121,121,119,123,122,122,122,122,122,122,122,120,122,121,121,120,121,122,121,119,121,121,122,121,122,121,119,120,122,121,122,121,120,121,120,120,122,121,121,121,121,122,121,121,121,121,122,121,122,122,121
120,121,121,122,122,121,121,119,121,122,122,122,121,120,121,120,119,121,121,122,120,120,121,119,121,122,121,122,121,121,121,120,120,121,121,122,121,121,122,120,121,122,121,122,121,120,120,121,118,120,120,121,121,122,122,121,125,122,121,121,120,121,121,121,119,122,121,122,121,121,122,120,121,122,121,121,121,121,121,121,120,121,121,122,121,121,120,120,121,122,121,123,122,121,121,121,120,121,121,122,121,120,120,120,121,122,121,121,120,121,121,120,118,120,121,121,121,121,121,120,120,122,120,121,121,120,122,121
121,122,121,122,121,121,120,120,122,123,121,122,121,121,122,121,120,121,120,121,121,121,121,121,121,122,121,123,121,120,120,120,120,122,121,122,121,120,121,120,120,121,121,122,122,121,121,120,119,120,120,121,121,121,122,120,123,122,121,122,121,120,121,121,121,122,122,120,121,121,122,121,119,120,121,122,122,121,120,119,124,121,121,122,121,122,121,121,118,121,121,122,121,121,121,120,121,122,121,122,121,121,121,121,120,121,121,122,122,121,121,119,121,121,120,121,121,121,121,121,120,121,121,122,121,120,121,120
121,120,120,121,121,121,121,121,120,121,121,122,121,121,120,119,120,121,120,121,121,121,121,120,121,123,122,122,121,122,122,121,122,122,121,121,121,121,122,121,119,120,120,121,121,121,121,120,120,122,121,121,120,121,121,120,118,121,120,121,121,121,122,120,123,121,121,122,121,121,121,120,121,122,121,122,122,122,121,121,119,121,121,121,121,121,121,121,120,121,121,121,121,121,121,120,121,122,121,122,121,121,121,120,122,122,122,121,120,120,121,121,120,121,120,121,121,121,121,120,120,122,121,121,121,121,121,120
120,122,121,125,122,121,121,119,121,121,121,121,121,121,121,120,121,122,121,121,120,121,121,120,120,122,120,121,121,121,122,120,121,121,121,122,122,121,121,120,120,121,121,122,121,121,122,120,121,122,121,122,122,121,121,121,120,121,121,122,122,121,121,119,123,122,122,122,122,121,121,120,119,122,121,121,121,121,121,121,119,121,121,122,122,121,121,120,121,121,120,121,121,121,122,121,121,122,121,122,121,121,122,120,120,122,122,120,121,122,122,121,120,121,121,124,122,121,122,120,122,122,122,122,121,121,122,121
121,121,120,121,121,121,121,120,119,120,120,122,121,122,121,120,121,121,121,121,120,120,121,120,119,121,121,122,121,120,121,120,122,122,122,122,121,120,121,121,120,120,121,122,121,122,121,120,120,123,121,122,121,121,122,120,121,122,122,122,121,120,121,120,124,121,121,121,120,121,121,121,119,121,120,121,121,121,122,120,121,121,120,121,121,121,122,120,120,120,120,122,121,121,122,120,120,121,121,122,121,121,122,120,121,122,121,121,120,121,121,120,120,121,121,122,121,121,121,120,119,121,121,121,121,121,120,120
121,122,121,121,122,122,121,121,120,121,121,121,121,121,121,120,124,122,121,122,121,122,121,120,118,120,121,122,121,120,120,119,120,121,121,122,122,121,120,120,121,121,121,122,121,121,121,120,120,122,121,121,120,120,121,120,121,121,121,122,121,121,121,121,120,122,121,122,121,121,120,120,121,122,121,122,121,121,122,121,122,122,121,121,120,121,121,120,120,121,121,121,120,121,121,121,120,122,121,122,121,120,121,120,121,121,121,122,122,122,121,121,121,122,120,121,121,121,121,121,121,121,120,121,121,121,122,121
121,122,122,122,121,121,121,120,122,122,121,121,121,121,121,121,120,121,121,122,121,121,121,120,121,122,121,122,121,121,121,119,119,121,121,122,122,121,122,120,121,122,121,122,122,121,120,120,123,122,122,122,122,122,121,121,120,122,121,121,120,121,121,120,121,120,120,123,122,122,122,121,120,121,121,121,121,121,122,120,119,121,121,122,121,120,121,120,121,121,121,122,121,121,122,121,120,122,122,122,121,120,121,120,121,122,121,123,121,120,121,120,120,122,122,122,121,120,121,120,120,122,121,121,121,121,122,121
122,123,121,122,121,121,122,121,120,121,121,122,121,121,121,120,122,121,120,121,121,121,121,120,119,121,120,122,122,121,121,120,119,121,121,122,122,121,121,119,122,122,121,122,121,121,121,120,122,121,120,121,121,121,121,121,120,122,121,122,122,122,122,120,120,121,121,122,121,121,121,120,120,122,121,121,120,120,121,120,120,120,121,121,121,122,122,121,122,122,121,126,123,121,122,120,120,122,122,122,121,121,122,121,120,121,121,121,120,120,121,120,120,121,122,122,121,120,121,120,121,122,121,121,120,121,121,121
120,122,121,122,122,121,121,120,122,121,121,122,121,121,121,121,120,120,120,122,121,121,121,120,121,122,121,122,121,120,121,120,122,122,122,122,121,121,122,121,120,122,121,122,121,121,122,120,119,121,121,122,121,121,122,120,120,121,121,122,122,121,121,120,120,121,121,122,122,121,121,120,120,121,121,122,121,121,122,120,119,121,121,122,121,121,121,120,121,121,121,122,121,120,121,120,121,122,122,122,121,121,122,121,121,120,120,121,121,121,121,120,121,122,120,121,121,121,122,120,121,122,121,122,121,122,122,120
119,120,120,121,121,122,121,120,120,121,121,121,121,121,121,120,121,123,122,125,121,121,121,121,121,122,121,121,121,120,121,120,119,121,121,122,120,121,122,120,121,123,121,122,122,122,121,121,119,120,121,122,121,121,121,120,120,121,120,122,121,121,122,121,121,122,122,121,120,121,121,120,121,122,121,122,122,122,121,119,121,121,121,122,121,121,121,121,121,122,121,122,122,121,121,120,124,121,121,122,121,122,121,121,119,121,122,122,121,121,121,120,122,121,121,122,121,121,121,121,119,121,121,122,122,121,121,120
123,122,121,123,121,121,121,121,118,120,120,122,121,122,122,120,121,121,121,122,122,120,120,120,120,121,121,121,121,121,122,120,120,121,120,125,122,121,122,120,121,122,121,120,121,121,121,121,120,122,121,122,122,121,121,120,120,121,121,122,121,121,121,120,120,121,121,121,120,120,121,121,122,122,122,123,121,120,121,120,120,122,120,121,121,121,122,121,122,122,122,122,122,121,121,121,120,122,121,122,120,120,121,120,121,122,121,122,121,120,121,120,120,120,120,122,121,121,122,121,120,121,121,122,121,122,122,120
121,122,120,121,120,121,121,121,121,122,121,122,121,120,121,120,119,121,121,122,122,121,120,120,120,121,121,122,121,121,122,121,121,122,121,121,122,121,121,120,119,120,120,125,122,121,121,121,123,121,120,120,121,121,122,121,120,122,121,122,121,120,121,120,121,121,122,122,122,122,121,120,120,122,121,121,120,121,121,120,121,121,120,121,121,121,121,121,120,121,121,122,122,121,121,120,121,122,121,122,122,122,122,120,119,121,121,122,121,121,121,120,119,121,121,122,121,121,121,121,123,122,122,122,121,120,121,120
119,120,121,122,121,120,121,120,122,123,122,122,121,121,122,121,120,122,122,122,121,121,121,121,121,121,121,122,121,121,121,120,120,122,121,122,121,120,121,120,120,122,122,122,122,122,121,121,121,122,120,120,120,121,121,121,122,122,121,125,122,121,122,121,120,122,121,121,120,120,121,120,119,121,121,122,121,122,121,120,121,121,120,121,121,121,122,121,121,122,121,121,121,121,121,121,120,122,120,121,121,121,121,121,122,121,121,122,120,121,121,121,119,121,121,122,122,121,120,120,119,122,121,122,122,121,120,120
121,121,120,122,122,121,121,120,118,121,121,122,121,122,121,119,121,121,120,121,121,121,121,121,120,121,121,122,120,121,121,120,120,122,121,122,121,121,120,120,120,121,121,122,121,121,121,120,120,121,121,122,122,122,121,120,120,121,121,122,121,121,122,120,121,121,122,122,121,121,121,120,120,122,122,121,121,121,122,121,121,122,122,124,121,120,121,121,121,121,121,121,121,120,121,120,119,121,121,121,120,121,121,120,122,122,120,121,121,121,122,121,120,121,121,122,121,120,121,120,121,122,122,122,122,121,122,121
121,121,120,121,121,121,122,121,120,122,121,121,121,121,122,121,121,122,120,121,121,121,121,121,121,122,121,121,121,121,121,120,120,121,121,122,121,121,122,121,118,122,121,121,121,121,121,121,124,121,121,121,121,121,121,121,118,121,121,122,121,121,120,120,120,122,121,122,122,121,122,120,121,121,121,122,122,121,121,120,120,122,121,122,121,120,121,120,121,121,121,122,121,122,121,120,123,122,122,122,121,121,122,121,119,121,121,122,121,121,121,120,120,122,122,122,120,120,121,120,120,121,120,121,121,122,122,120
120,121,121,123,121,120,120,120,121,122,120,121,121,121,122,120,120,121,120,121,121,121,121,120,122,122,121,122,120,121,121,120,120,121,120,121,121,121,121,121,121,123,121,121,120,121,121,121,119,120,121,122,122,121,121,119,120,121,121,122,121,121,122,120,121,122,122,122,120,120,121,121,120,121,120,122,121,122,122,120,120,121,121,122,122,121,121,120,118,121,121,122,121,121,121,119,123,122,121,122,121,120,121,120,120,121,121,121,122,122,122,120,119,120,121,125,122,122,121,120,121,122,121,121,121,121,122,121
120,122,121,121,121,122,122,120,121,121,121,122,121,121,122,120,120,122,122,123,122,121,121,120,119,121,121,122,122,121,121,120,121,122,121,122,122,122,121,120,122,120,121,122,121,121,121,120,123,121,121,122,122,121,122,122,119,122,121,122,122,121,121,120,122,122,121,122,121,121,122,120,120,122,122,121,120,120,121,120,120,121,121,122,122,121,121,121,121,122,121,121,121,121,122,120,121,122,122,122,121,121,121,121,120,121,121,122,122,121,120,120,120,122,121,122,122,122,121,120,120,122,121,122,121,120,121,120
121,121,121,122,122,121,121,120,121,121,121,122,121,121,122,121,118,121,121,121,121,121,121,119,121,122,121,120,120,121,121,120,121,122,122,123,121,121,121,121,120,122,121,122,121,120,121,120,121,121,122,122,121,121,122,121,120,122,121,122,121,122,122,121,121,122,121,122,121,121,122,120,121,121,120,122,121,121,122,120,120,121,121,122,121,121,122,121,120,121,121,121,121,121,122,120,121,121,121,122,121,121,121,121,120,121,121,121,121,121,122,120,119,121,121,122,121,120,121,120,122,121,120,122,121,121,121,120
120,122,121,122,121,121,121,120,121,122,121,122,121,121,121,121,120,120,121,122,121,121,122,120,122,121,121,122,122,121,121,120,119,121,121,122,121,121,122,120,121,121,121,122,120,121,121,120,121,123,122,125,122,121,122,121,120,121,121,121,122,121,121,120,123,122,121,121,121,122,122,121,120,121,121,122,121,122,121,120,120,120,120,121,121,121,121,120,120,121,121,122,122,121,120,119,121,121,121,122,122,121,121,121,120,122,122,122,122,121,121,120,120,122,121,122,122,121,120,120,120,120,120,122,121,121,122,120
121,122,122,122,121,120,121,120,120,122,121,122,121,120,121,120,121,120,121,122,121,121,122,121,120,121,121,121,121,121,121,121,118,120,120,122,121,121,122,120,124,122,121,121,121,121,121,121,119,121,120,122,121,121,122,120,119,120,120,122,121,121,122,120,121,121,120,121,120,121,121,121,122,121,121,122,121,122,121,121,119,121,121,122,121,120,121,120,121,123,121,121,121,121,122,120,121,121,120,121,121,121,121,121,120,122,121,122,121,121,121,120,121,121,121,122,121,121,122,120,121,122,122,121,121,121,121,121
121,122,121,122,120,121,122,120,120,121,121,122,122,121,121,120,121,122,122,122,120,120,121,121,121,121,121,121,120,121,121,120,121,121,121,122,121,121,121,120,120,122,121,121,120,121,121,120,122,121,120,122,121,121,122,121,121,122,121,122,121,121,122,120,120,122,121,122,122,121,120,120,120,120,121,122,121,121,121,119,119,119,120,122,121,121,122,121,121,121,121,122,121,122,122,120,120,122,121,121,121,121,122,120,119,120,120,121,121,121,122,121,123,122,121,122,121,120,120,120,120,121,121,122,122,121,121,120
120,121,121,121,121,121,122,120,120,121,121,122,122,122,121,120,121,122,121,121,120,121,121,121,119,120,121,121,122,121,121,119,120,122,121,121,121,121,121,120,120,122,121,122,121,122,121,120,122,121,121,122,122,121,121,121,120,121,120,121,121,121,121,121,121,122,122,123,121,121,122,121,121,122,121,121,120,121,121,121,120,121,121,122,122,121,121,120,120,121,121,122,122,120,120,120,123,121,122,122,121,120,121,120,119,121,121,121,121,121,122,120,121,123,121,124,121,121,121,121,120,121,121,121,121,121,121,119
118,120,120,121,121,121,121,120,123,122,121,122,120,120,121,121,119,121,122,123,121,121,121,120,122,121,121,122,122,121,121,120,119,121,121,122,121,121,121,120,121,121,121,122,121,121,122,120,121,122,120,121,120,121,121,121,120,122,121,122,122,121,121,119,121,121,121,122,122,121,120,120,121,121,122,122,122,121,122,121,120,122,121,121,121,121,122,120,122,121,121,122,121,122,122,121,120,122,121,122,121,121,122,121,119,120,121,121,121,121,121,119,121,122,121,122,122,122,121,120,120,121,120,121,121,121,121,121
120,121,121,122,122,121,121,119,120,122,121,122,121,121,121,120,120,121,121,121,121,122,121,120,121,121,121,124,122,121,122,120,120,121,120,121,121,121,121,121,120,121,121,122,121,121,122,120,123,122,121,122,121,122,122,121,121,122,121,121,121,121,121,120,120,122,121,121,121,121,122,121,120,122,121,122,122,121,121,121,120,121,121,122,122,121,121,120,118,120,120,122,121,122,122,120,124,121,120,121,121,121,122,121,121,121,121,122,121,121,121,120,120,122,121,121,120,121,121,120,121,123,121,122,121,122,122,120
121,122,121,122,122,122,121,120,120,121,121,122,121,120,121,120,121,122,121,122,120,121,121,120,121,122,121,122,121,122,122,120,121,122,122,121,120,120,122,120,120,121,120,121,121,121,122,121,121,121,120,121,121,121,121,120,120,122,121,123,121,120,120,120,120,122,121,123,122,121,121,121,120,121,120,122,121,121,122,120,120,121,121,121,120,120,120,120,121,122,121,122,121,121,122,120,121,122,121,122,121,121,121,120,121,121,121,122,121,122,122,121,120,122,121,122,120,120,121,121,121,122,122,122,121,120,121,121
118,121,121,121,120,121,121,120,121,121,120,121,121,121,122,120,121,122,121,122,121,121,121,120,120,121,121,122,122,121,121,119,121,121,120,122,121,121,122,120,122,122,122,122,122,121,122,121,122,121,120,121,121,121,121,121,120,121,121,122,121,121,121,120,120,122,120,121,121,121,122,121,122,121,121,122,121,121,122,121,121,122,121,122,121,122,121,121,119,120,121,122,120,120,121,120,121,122,120,121,121,121,122,121,120,122,122,122,121,121,122,121,121,122,122,122,122,121,121,121,123,122,121,122,122,121,122,121
118,120,121,122,121,120,122,121,122,122,121,120,121,121,121,121,121,122,121,123,122,121,122,120,120,121,121,121,121,122,122,120,121,121,120,120,121,120,121,121,119,121,121,122,120,120,121,120,120,122,122,122,121,120,121,120,121,122,122,122,120,121,121,121,120,122,121,123,122,121,121,120,120,121,120,122,122,121,121,120,120,121,121,122,120,121,121,120,121,122,121,122,122,122,122,121,121,122,122,122,120,121,121,121,121,121,121,122,121,121,121,120,119,121,121,122,121,122,121,119,123,123,122,122,121,122,122,121
119,122,122,122,121,120,121,120,120,121,121,122,120,121,121,121,118,122,122,122,120,120,120,120,125,122,121,121,121,121,122,120,121,121,120,123,121,120,122,120,119,120,121,121,121,121,115,118,120,122,121,122,122,121,122,120,121,121,120,121,121,121,122,121,121,122,121,122,121,122,122,120,120,121,121,122,121,121,122,120,120,122,121,122,121,121,121,121,120,122,122,122,121,120,121,121,121,122,121,122,121,121,122,121,120,121,120,121,121,121,121,120,121,122,121,122,121,121,120,120,120,121,120,122,121,121,121,121
122,121,121,123,122,121,122,121,120,122,121,122,122,121,121,119,120,122,121,122,122,122,121,120,121,121,121,122,121,120,121,120,121,122,122,122,120,121,121,121,120,121,121,122,122,121,121,121,122,121,121,122,121,121,121,120,119,122,121,121,121,121,121,121,121,121,121,121,121,122,122,121,120,121,121,120,120,121,121,120,118,121,121,124,122,121,121,120,120,121,122,121,120,120,121,120,119,121,121,122,120,120,121,119,121,122,120,121,121,121,122,121,121,122,122,122,121,120,121,120,120,121,121,122,121,120,120,120
120,121,121,121,120,120,121,120,121,121,121,122,121,121,121,120,120,122,122,122,121,120,121,121,121,122,122,121,121,121,121,120,120,121,120,122,121,121,121,120,121,122,121,122,122,121,121,120,118,121,121,122,122,121,120,120,119,121,120,121,121,121,122,120,121,120,120,121,121,121,123,121,123,122,121,121,121,121,117,120,119,122,121,122,120,120,122,120,119,121,121,121,122,121,121,119,120,122,122,125,122,120,121,120,121,122,121,120,120,120,121,120,115,121,121,123,121,121,118,118,127,123,122,122,121,122,128,125
129,120,120,121,120,119,121,122,114,120,120,120,119,118,107,115,122,122,121,122,121,121,122,116,120,118,120,121,121,120,122,117,111,125,121,121,121,123,130,117,130,120,121,122,120,118,118,125,120,125,122,122,122,125,123,134,116,120,119,120,120,119,119,111,120,123,122,122,121,122,118,117,121,122,121,121,120,118,114,122,121,121,121,122,121,122,134,122,120,121,121,121,121,120,120,120,121,122,121,121,120,120,121,119,128,123,121,122,122,121,129,129,112,122,121,121,119,120,110,116,130,121,121,119,119,117,117,122
103,126,121,115,118,118,137,121,132,123,123,140,128,127,116,118,118,126,121,118,119,120,111,117,121,121,120,117,118,113,112,123,135,125,121,122,123,141,127,126,119,121,121,122,120,115,118,117,117,120,120,123,121,121,114,114,119,120,120,121,119,118,118,119,121,122,121,120,120,120,121,120,120,120,121,126,121,116,123,121,121,122,121,121,122,126,130,122,120,121,121,122,122,124,123,119,119,121,120,121,121,118,119,119,121,121,121,122,124,124,123,121,113,122,121,121,118,114,132,121,132,122,121,122,119,119,121,123
129,122,121,126,122,121,122,130,113,121,120,119,120,122,114,112,118,121,121,119,117,115,116,117,127,122,122,119,122,127,127,124,130,121,121,132,129,133,121,134,119,120,120,119,119,116,116,111,117,119,120,117,121,123,121,111,122,122,122,123,124,139,126,126,120,120,120,119,119,117,116,121,120,121,119,117,118,120,120,120,119,120,120,122,120,118,119,119,116,121,121,120,121,113,121,119,133,124,122,126,119,117,129,132,123,121,122,121,124,126,126,119,117,122,120,123,123,120,116,109,123,123,123,126,122,123,128,134
122,119,121,122,121,123,126,116,129,121,120,122,123,118,117,120,115,122,122,124,121,121,123,116,118,122,122,121,120,120,121,120,119,119,119,118,120,123,119,123,123,121,121,121,124,120,121,123,124,121,120,125,121,120,118,119,118,121,121,120,119,128,120,120,117,122,120,116,113,95,128,120,121,122,121,121,121,127,120,111,125,120,121,121,121,126,121,128,120,120,121,117,117,118,122,123,125,123,121,122,124,122,126,127,119,123,121,121,121,120,130,117,125,120,122,123,122,130,128,113,121,119,117,107,114,118,124,117
122,123,124,145,133,128,127,127,118,121,119,113,117,118,127,123,122,117,119,114,117,119,121,121,117,122,121,125,121,121,119,118,120,120,118,118,118,116,121,118,121,121,121,118,118,113,124,122,120,122,122,125,123,121,121,121,119,122,121,117,120,121,120,119,122,118,119,126,120,121,116,122,109,121,121,133,129,133,128,118,109,120,126,148,137,119,118,119,135,115,120,110,114,112,124,126,119,125,123,128,119,120,126,120,116,122,118,111,119,122,121,119,97,122,124,140,134,118,124,119,148,111,117,124,121,124,122,125
116,125,120,109,116,123,110,114,107,120,124,149,129,113,117,118,129,125,121,115,120,120,124,125,121,116,120,117,118,125,132,120,120,122,120,120,121,121,121,119,105,123,121,121,116,113,115,117,142,120,121,122,125,117,119,125,113,123,120,109,119,143,127,120,113,119,120,147,127,91,124,116,110,126,125,134,124,134,130,120,146,114,122,113,121,133,113,122,125,125,121,123,114,110,117,120,113,125,120,111,118,110,113,120,120,122,118,116,120,126,125,120,97,127,128,147,122,133,121,115,134,105,116,106,119,109,126,128
116,125,119,117,120,133,137,119,118,123,125,126,121,113,107,118,119,121,119,116,123,129,111,119,123,120,124,139,124,117,125,117,117,122,118,112,115,131,108,118,127,125,120,130,126,111,129,120,94,129,126,123,112,124,104,121,147,115,132,158,149,122,128,134,105,124,123,120,114,112,123,119,118,122,119,115,120,136,122,118,127,121,118,118,116,105,106,120,112,121,122,118,122,148,125,120,119,117,115,111,117,83,119,118,121,125,130,159,135,143,122,118,136,122,123,118,117,112,110,120,113,123,119,110,119,117,122,119
119,122,121,129,120,112,114,115,128,118,127,135,126,148,134,130,122,124,121,113,107,95,133,118,116,121,121,154,128,122,119,120,119,121,122,119,116,113,107,117,111,127,120,116,121,130,136,117,135,113,116,115,112,93,99,116,150,121,125,125,129,179,146,130,108,125,125,139,129,122,107,118,119,125,122,120,121,121,128,121,118,122,120,115,130,114,118,118,109,123,121,130,121,126,119,115,138,115,118,101,115,117,120,124,122,126,124,136,115,104,117,120,118,123,122,123,128,153,141,122,119,122,123,130,119,98,119,120
121,123,124,123,124,139,111,119,120,119,120,121,112,103,116,120,132,120,122,142,129,118,117,125,117,120,118,116,113,115,114,116,119,122,119,110,119,126,124,121,114,124,119,129,126,135,131,117,140,118,125,134,123,134,135,130,111,127,122,135,123,112,94,111,115,123,120,118,123,138,113,114,122,121,119,119,119,132,127,119,113,123,124,124,121,114,114,117,128,109,118,121,115,122,134,122,119,121,118,116,119,118,112,117,115,122,121,118,118,103,121,117,121,124,120,117,117,125,120,119,121,122,121,129,123,116,111,121
113,125,120,120,119,116,124,120,138,116,124,122,123,128,139,128,122,124,118,115,115,118,118,119,118,124,121,122,115,105,113,119,121,123,124,126,128,152,122,121,130,128,119,109,108,94,118,120,133,115,125,142,137,123,119,125,120,127,123,133,121,120,118,120,108,123,120,123,120,127,102,112,126,121,119,108,117,104,106,119,122,121,122,125,122,127,131,120,118,120,118,119,120,119,118,117,131,119,121,122,123,127,122,122,117,124,122,117,106,82,104,120,127,124,121,124,132,154,150,123,116,120,121,137,129,130,115,118
117,124,120,113,115,108,122,121,120,124,123,120,118,113,107,116,140,122,123,134,124,115,115,124,116,125,121,123,119,137,121,118,117,123,120,125,116,117,114,118,108,124,120,93,115,108,130,122,144,122,138,178,144,141,131,129,118,124,118,120,126,114,116,122,121,125,120,115,114,111,114,119,115,119,121,118,120,127,134,127,123,123,121,122,123,116,130,121,125,122,122,123,125,138,112,120,118,119,120,121,119,128,133,121,119,121,120,123,118,111,116,119,123,122,118,112,122,120,124,121,116,128,126,130,124,130,120,119
128,116,119,120,117,126,117,119,130,115,114,100,114,105,116,123,109,127,124,136,129,127,119,116,125,121,119,109,115,110,113,118,115,123,125,127,131,135,140,124,141,120,119,126,115,115,120,120,112,126,121,118,119,116,122,119,118,121,117,108,118,117,124,119,123,122,122,126,122,132,124,121,119,121,120,117,118,111,125,119,120,121,120,124,123,118,123,122,122,122,121,121,119,112,112,119,121,120,121,118,123,124,123,122,122,123,121,119,122,122,120,121,118,118,121,125,121,118,116,117,124,122,119,127,121,132,118,119
128,123,123,120,119,117,110,121,112,130,119,119,123,126,126,118,113,110,123,123,113,98,127,122,129,122,120,132,130,131,119,121,112,123,117,107,117,119,119,117,119,124,127,141,124,116,115,119,122,121,119,114,124,147,121,123,121,122,122,129,121,113,123,119,119,120,119,114,121,135,115,119,123,119,119,123,122,117,125,122,120,122,126,123,117,118,106,117,112,122,118,118,120,118,133,119,125,115,118,117,119,122,115,123,119,122,123,125,120,121,117,120,98,125,122,121,125,125,125,115,137,114,118,114,121,129,108,129
107,116,119,104,116,109,126,117,118,123,121,128,123,119,114,118,106,123,119,108,118,120,117,115,144,120,121,145,134,128,126,126,116,124,119,109,116,126,114,118,114,124,122,117,116,100,129,119,131,119,122,124,124,132,136,123,120,120,120,118,124,125,130,122,119,122,121,125,120,121,126,122,122,124,125,131,123,121,125,122,120,121,119,110,120,123,120,120,120,121,123,135,123,117,131,125,123,119,116,108,117,121,115,117,113,124,120,122,120,105,115,120,138,120,127,124,122,120,123,128,111,123,120,123,122,125,115,117
130,119,117,118,119,104,115,119,101,126,125,129,121,120,124,119,141,116,119,110,119,126,121,127,108,124,119,119,123,124,124,114,124,118,115,116,122,117,120,116,117,124,124,114,119,126,134,125,122,121,120,120,119,108,120,120,121,121,120,124,121,121,127,122,120,120,119,115,116,122,120,120,121,125,123,118,122,117,123,121,119,111,116,122,119,129,151,123,129,124,121,113,115,112,115,120,119,124,121,123,128,127,118,117,118,121,119,120,123,129,117,118,115,122,121,125,122,122,123,119,128,121,122,121,119,127,118,124
102,121,118,108,121,120,122,116,125,119,122,142,119,123,101,119,124,125,124,125,126,125,129,125,126,120,120,119,121,117,132,128,117,122,121,119,121,138,131,120,121,127,122,121,124,114,122,121,120,110,118,132,124,124,118,122,123,123,122,121,120,114,123,122,122,123,122,110,118,121,123,116,120,122,121,118,121,128,123,120,121,121,120,126,125,123,122,122,121,121,118,113,122,116,107,116,125,120,120,110,117,117,127,122,124,121,123,127,123,120,125,121,108,123,120,118,120,121,118,120,129,117,121,119,122,113,118,121
119,125,119,117,122,119,141,124,126,119,123,133,119,115,118,117,117,125,121,114,119,126,111,118,142,123,123,122,126,124,114,124,117,123,121,120,120,142,129,120,116,121,120,120,121,111,118,119,117,122,123,121,121,127,122,119,119,121,119,117,121,123,105,117,125,120,120,130,125,126,121,121,117,121,122,108,118,121,124,121,123,120,120,133,120,121,122,122,119,121,118,114,115,121,115,118,122,119,121,129,120,122,124,121,118,120,120,118,119,120,125,119,126,124,121,116,121,130,123,120,116,120,120,125,120,116,108,121
119,120,123,131,126,128,133,124,118,123,121,120,119,119,113,118,119,121,121,123,124,122,114,118,115,122,119,116,117,119,116,118,121,118,117,116,120,117,121,122,117,120,125,144,120,118,121,120,120,124,120,114,122,119,125,119,124,123,121,115,128,143,127,123,125,119,124,132,121,117,124,119,126,122,118,119,120,126,126,118,116,122,122,124,125,127,126,121,124,116,120,117,117,103,112,119,125,124,121,116,128,137,140,122,116,122,119,117,119,123,124,117,115,117,119,116,119,121,122,119,119,122,118,118,116,106,112,118
127,117,123,128,121,119,123,128,122,122,121,120,125,141,123,122,117,121,120,125,120,114,113,118,121,123,123,127,123,119,125,121,117,121,123,128,122,125,115,118,122,120,119,120,120,112,113,116,120,122,121,105,121,127,132,123,119,119,117,125,122,115,118,117,116,123,126,127,121,130,115,118,115,126,120,119,121,117,114,117,131,106,116,113,114,110,123,126,114,125,126,138,125,120,110,114,117,123,119,118,121,122,115,117,118,123,122,120,121,123,120,121,115,118,119,116,119,125,117,118,127,120,116,109,121,123,120,121
117,119,119,119,119,122,131,121,115,118,118,118,121,117,107,116,125,124,127,130,120,115,116,119,126,123,120,118,118,115,126,123,121,122,122,126,123,124,128,125,114,118,121,122,123,119,131,121,119,121,123,121,123,130,129,122,119,120,120,119,121,119,119,119,118,121,117,112,117,118,115,118,134,118,123,132,127,116,119,128,114,121,119,123,118,138,127,115,119,124,119,118,123,127,116,118,122,121,118,115,119,106,116,121,122,124,122,121,120,130,136,123,103,123,127,123,118,118,117,120,131,109,115,117,122,138,129,126
115,123,123,133,125,128,134,123,118,123,121,120,120,115,118,118,121,123,121,123,116,115,139,125,119,122,122,129,125,130,114,117,119,121,118,113,115,113,98,115,116,121,124,121,124,132,130,123,126,121,119,111,122,112,129,121,119,120,122,123,123,125,105,115,121,121,120,128,120,123,113,119,120,123,119,114,121,125,127,119,115,123,123,119,121,110,116,117,132,113,119,125,116,111,117,124,120,121,118,109,122,142,119,118,117,122,117,112,118,120,119,120,116,124,121,113,119,120,114,118,120,120,121,123,123,114,131,120
120,121,119,116,120,127,120,121,120,122,121,120,122,122,118,118,117,119,120,127,121,114,116,119,129,123,119,105,114,121,137,127,125,122,121,127,125,128,118,116,125,120,119,113,116,115,128,123,120,119,122,143,124,112,113,117,117,122,119,114,120,127,134,122,118,125,123,123,120,118,113,117,110,118,118,120,120,120,105,115,137,120,119,118,118,117,109,119,114,123,120,119,118,121,132,118,119,123,121,123,120,114,118,120,118,120,120,118,119,122,109,117,116,119,118,120,117,118,121,119,120,123,124,131,124,124,126,121
121,121,120,118,120,121,116,118,120,121,120,123,122,122,125,121,120,124,128,137,123,123,131,121,119,121,119,118,123,115,123,118,127,123,123,123,122,120,126,123,109,122,118,118,118,118,114,116,128,121,125,142,127,125,129,124,120,124,124,127,118,119,129,122,115,122,122,123,124,118,122,120,106,126,122,122,119,116,115,113,144,109,117,125,117,108,116,126,113,125,121,118,121,125,124,118,116,122,121,119,122,124,130,120,121,123,120,124,124,128,115,118,119,121,123,127,121,135,112,120,122,120,120,120,121,107,125,121
123,124,123,120,122,124,118,121,116,120,121,131,127,143,113,118,124,120,121,129,124,115,122,122,119,123,121,116,119,121,121,121,120,122,121,121,122,118,118,119,115,120,119,110,117,116,128,121,136,123,122,124,124,139,129,125,106,119,122,132,121,115,115,117,118,122,122,124,122,126,118,120,117,124,120,115,119,109,123,118,118,119,117,112,117,135,135,121,130,120,122,139,124,129,115,122,118,125,124,119,121,119,129,122,122,121,119,114,121,121,120,119,117,122,123,118,117,114,120,121,120,121,121,121,128,140,127,121
114,121,118,107,113,106,126,120,136,122,125,150,124,117,122,126,120,122,120,119,118,120,129,122,120,124,125,127,126,143,126,119,123,122,119,118,118,96,121,123,117,119,119,115,126,131,132,120,138,123,122,129,122,125,122,123,118,123,119,110,117,110,116,117,117,121,121,131,121,116,148,129,118,119,120,118,121,125,120,122,122,125,127,145,124,112,128,121,132,115,118,116,121,121,127,124,124,125,127,126,124,130,122,122,120,121,119,119,120,114,133,120,120,125,121,120,128,124,129,123,118,120,123,132,119,113,120,118
123,121,120,119,125,132,132,122,117,121,119,118,120,120,116,120,123,123,123,120,119,116,110,119,120,120,119,114,120,120,123,119,124,122,120,120,120,120,112,118,112,121,118,123,121,122,129,120,127,121,128,131,125,122,113,117,114,113,114,110,121,131,125,117,114,123,122,128,119,112,120,118,121,124,122,122,123,118,123,121,128,122,119,118,122,126,130,122,106,124,125,122,117,116,121,119,138,120,119,117,128,128,111,118,118,118,120,129,121,124,130,124,118,122,120,115,121,117,111,120,125,123,122,130,120,114,123,122
117,121,123,121,120,114,120,119,123,122,126,130,124,117,128,122,127,121,118,115,116,121,117,121,116,122,120,120,117,116,121,119,124,121,121,124,122,121,123,125,125,120,121,115,120,120,107,116,121,122,123,121,120,116,121,121,121,124,122,119,122,125,138,123,128,122,118,118,118,104,117,125,111,121,128,134,125,137,142,124,122,121,118,114,116,111,118,119,112,120,123,125,123,121,125,120,123,125,121,125,123,127,130,124,126,122,120,117,119,127,117,119,115,121,121,131,121,119,127,120,117,122,124,127,121,116,121,118
122,122,120,116,120,115,122,122,120,121,120,122,124,142,124,120,120,121,121,112,118,114,114,118,123,123,124,134,124,123,123,123,120,122,119,114,121,121,128,120,122,123,121,123,120,117,118,119,118,117,119,123,120,114,127,122,126,125,124,123,118,117,113,119,110,122,128,150,122,116,109,115,132,122,118,109,120,117,129,126,112,120,123,118,118,118,115,119,119,123,121,130,125,122,120,120,120,124,121,125,120,118,117,120,115,120,121,116,123,122,127,120,128,119,118,124,115,111,119,119,119,121,120,114,119,124,122,122
122,123,122,126,121,121,115,116,116,122,122,127,121,118,127,122,124,121,120,118,123,118,124,122,120,122,122,125,120,115,115,118,122,119,119,121,123,125,118,120,123,123,122,122,117,120,120,119,111,118,121,123,120,114,123,121,113,119,116,103,120,127,130,121,112,124,126,143,121,114,109,116,137,120,116,105,120,129,121,123,109,121,120,122,120,117,122,117,130,124,125,136,121,115,124,121,122,122,120,126,124,128,116,120,120,121,119,124,120,121,123,120,120,117,117,114,118,109,118,119,120,124,121,121,118,122,130,123
120,122,123,132,122,125,105,116,127,125,121,119,119,111,118,123,117,119,121,118,119,123,128,124,120,123,121,123,121,122,132,121,118,120,122,127,125,124,122,120,119,124,121,118,118,118,115,118,119,120,121,112,123,136,123,119,117,120,122,129,120,115,112,118,121,123,117,110,122,122,109,116,122,120,124,134,120,120,128,123,117,124,122,130,126,125,115,119,127,123,123,131,122,126,120,123,121,122,119,114,120,122,121,119,126,120,120,119,119,115,119,124,109,120,121,120,119,114,119,117,124,122,121,126,122,128,116,119
115,121,119,113,122,120,137,122,123,122,120,120,119,124,117,119,116,123,129,148,125,124,128,122,128,121,119,119,121,120,119,121,120,121,121,126,117,119,122,122,116,119,122,134,124,127,122,117,116,120,120,127,125,125,125,123,123,122,121,119,121,119,117,122,122,123,121,122,120,119,121,119,118,121,119,124,119,118,114,117,121,122,119,118,119,121,123,122,123,123,124,130,122,127,119,121,119,120,121,122,124,114,122,119,114,122,119,120,117,119,117,117,126,120,121,115,119,114,123,124,117,124,124,124,122,123,116,116
119,117,118,120,120,116,117,118,122,122,121,115,120,120,129,123,109,123,122,120,117,113,114,117,132,124,123,113,121,121,134,124,119,119,119,127,117,118,122,121,117,124,119,117,121,118,122,120,122,122,118,112,121,127,121,120,116,119,119,121,117,119,100,116,122,123,123,130,130,146,123,122,123,123,120,117,118,116,127,120,117,120,119,117,120,122,106,119,120,119,118,115,124,130,108,115,112,122,127,141,122,118,118,118,129,121,119,120,120,122,125,125,113,122,121,120,124,125,118,119,118,120,119,109,113,104,123,120
128,121,124,136,126,123,123,123,116,122,120,118,121,129,122,120,119,122,118,115,118,116,97,114,119,120,122,130,125,116,127,123,121,122,121,124,121,123,130,119,129,122,122,125,123,129,130,124,116,123,124,125,122,127,122,120,116,121,120,121,121,124,126,119,121,121,120,120,122,119,125,124,123,123,125,127,123,133,139,126,113,122,120,121,120,118,119,118,123,117,121,127,123,119,121,122,123,124,123,123,122,131,123,122,123,120,119,118,120,116,111,118,113,122,121,121,121,122,122,119,125,120,121,122,120,125,115,120
117,120,118,114,120,113,112,117,118,121,122,124,118,118,124,121,122,120,120,126,122,120,114,120,125,124,121,116,122,122,126,123,121,122,123,131,122,115,131,123,117,121,118,114,121,121,124,119,116,124,124,129,121,118,116,116,123,115,121,132,123,116,117,124,111,125,119,113,124,138,134,119,134,116,122,124,123,124,133,128,112,124,123,121,123,112,111,115,120,122,119,114,122,123,120,119,120,125,126,141,123,127,123,121,117,119,121,118,120,127,118,121,124,121,120,125,121,124,131,123,119,121,119,116,121,121,117,119
123,122,122,129,121,114,126,122,117,121,120,118,116,114,121,118,109,120,118,120,125,125,118,116,138,122,122,122,120,114,134,126,119,122,124,131,123,126,117,119,113,120,119,119,123,130,124,118,121,121,119,117,118,110,116,119,122,124,121,124,121,124,121,119,119,119,120,121,123,121,117,118,130,116,118,116,116,111,124,124,120,125,123,122,122,114,114,118,116,122,119,118,125,120,122,120,123,125,126,130,123,124,121,120,120,123,119,110,120,121,121,119,125,122,123,127,119,117,117,122,116,120,120,120,121,117,123,120
127,122,121,126,119,120,124,120,116,120,118,112,119,118,105,115,125,120,121,132,123,125,108,120,110,122,120,115,121,118,121,119,127,125,125,140,121,124,130,123,125,121,121,114,120,119,120,122,124,119,119,121,119,112,133,125,110,117,118,116,121,131,115,114,131,120,120,120,118,110,129,125,117,123,124,130,125,118,117,117,118,122,120,119,118,108,124,121,120,123,119,122,122,125,121,119,126,120,124,119,119,105,120,122,120,122,119,114,120,124,127,123,119,122,123,133,120,108,126,120,117,121,119,118,122,118,121,120
123,121,123,126,121,128,127,122,122,121,118,120,121,129,116,119,121,121,123,125,121,124,119,120,120,121,118,117,120,116,114,122,119,122,122,126,121,116,113,118,119,122,121,123,121,116,114,119,124,120,119,115,123,131,138,125,129,116,118,118,122,127,130,126,112,125,125,136,122,122,115,117,115,124,121,121,122,125,118,119,124,116,120,117,118,121,124,121,122,122,123,133,124,120,124,125,119,120,116,110,121,122,126,118,125,122,124,122,119,126,131,119,119,117,117,115,113,97,99,116,118,122,120,124,124,134,129,119
119,123,125,119,119,110,116,120,121,122,123,133,127,127,120,120,119,120,119,122,114,103,114,119,121,122,122,121,118,128,138,120,120,121,119,113,119,119,114,118,120,121,121,136,122,120,121,120,113,124,120,120,123,125,124,119,119,119,123,130,120,112,123,122,134,125,119,120,122,125,117,118,115,122,122,128,122,131,136,126,122,123,122,121,122,118,121,121,121,121,121,119,123,133,143,124,117,120,120,121,123,112,114,118,116,121,121,117,120,119,118,119,119,121,120,123,121,127,129,122,126,123,122,118,117,102,112,119
123,119,117,116,121,128,136,125,122,123,121,124,121,119,114,117,121,122,121,123,121,122,122,121,117,120,119,115,119,120,122,119,117,121,120,118,118,112,110,118,127,123,127,131,124,130,119,121,122,122,119,121,119,109,122,118,122,124,121,121,123,121,128,126,124,121,121,122,124,127,121,121,115,121,117,105,118,120,118,118,143,117,120,124,120,115,106,121,116,123,118,116,121,119,119,119,117,122,124,133,122,119,127,119,118,122,119,111,120,126,124,119,128,119,121,124,121,119,115,119,129,126,121,125,122,114,134,126
117,121,121,121,121,123,130,122,119,121,120,129,123,129,115,118,122,121,120,116,118,112,124,120,123,125,123,123,121,114,119,122,113,117,121,116,122,116,123,119,123,122,119,117,118,122,138,124,119,124,122,122,122,119,119,118,120,119,122,133,121,122,121,122,128,121,120,120,119,118,127,120,112,121,119,114,118,111,114,116,121,124,119,117,118,115,129,122,113,118,125,130,124,127,123,125,121,123,119,114,119,123,115,118,118,123,120,123,122,123,127,121,116,123,123,126,123,119,127,121,126,118,120,118,120,118,117,121
121,122,120,120,120,121,125,120,119,121,122,123,122,122,127,125,119,120,119,118,115,109,121,120,119,120,121,123,121,120,125,120,117,123,119,109,122,117,116,120,126,122,124,128,121,130,119,122,118,121,120,130,124,117,113,116,123,122,124,126,122,123,120,123,124,122,120,117,121,126,128,121,116,121,122,131,120,109,113,118,120,123,120,116,119,125,124,120,118,122,122,126,124,121,129,122,130,120,121,127,120,118,110,122,122,121,119,117,119,114,121,119,124,122,122,124,124,130,124,123,112,121,118,120,122,123,118,121
123,121,130,133,123,117,120,122,121,121,118,115,120,121,134,122,121,124,122,127,120,116,119,120,121,121,119,119,121,126,120,119,120,123,123,119,119,107,129,121,117,116,116,114,120,122,115,118,119,125,126,137,125,126,136,126,121,121,120,119,118,117,117,119,121,123,119,117,122,120,118,121,117,121,121,119,117,111,123,123,125,118,117,113,118,125,121,120,118,123,125,128,123,120,122,120,120,119,119,116,122,118,121,121,121,123,121,126,119,117,115,119,119,121,122,120,119,117,124,122,118,123,122,120,126,129,128,120
120,122,118,105,119,112,122,121,115,116,122,131,122,126,132,123,124,124,118,109,118,119,117,119,112,121,123,133,117,105,116,118,127,120,118,118,121,123,116,121,120,121,122,126,122,134,120,118,116,121,121,135,123,115,123,117,122,123,122,124,120,114,110,119,117,119,119,116,122,126,121,122,121,123,122,116,120,108,124,122,119,120,118,120,119,124,111,119,123,121,120,129,125,117,114,117,118,122,118,116,120,123,115,118,120,116,121,122,120,120,135,121,124,121,123,131,120,113,119,120,119,122,122,132,120,113,115,119
122,122,118,118,120,120,125,121,119,121,124,119,122,129,122,119,124,123,120,121,121,114,122,120,107,123,121,126,120,118,123,117,132,117,120,112,119,125,135,128,113,123,122,130,127,125,112,113,119,122,121,120,121,126,129,121,117,121,118,116,119,111,114,118,124,122,127,141,123,125,122,120,120,124,122,119,118,121,116,120,117,118,119,121,122,118,116,118,120,123,120,116,122,132,122,120,122,122,121,123,118,105,116,120,121,119,119,118,121,134,129,124,121,122,119,122,121,111,115,119,133,122,126,134,126,134,114,118
116,120,118,108,120,125,115,120,116,124,123,120,120,106,118,118,122,121,119,122,119,124,122,119,120,121,118,118,119,120,129,123,120,121,120,117,120,110,130,122,121,122,122,126,122,116,121,119,121,122,120,123,119,121,125,120,122,121,120,119,118,116,120,117,139,118,119,114,123,125,116,125,117,124,125,136,121,122,122,120,117,123,119,119,120,111,121,119,133,121,122,124,118,117,120,121,109,117,118,115,124,135,120,118,128,125,120,122,118,108,128,120,123,121,117,110,119,118,119,123,120,123,129,137,122,121,114,117
119,120,118,123,122,113,127,122,116,121,121,128,125,131,105,117,126,121,121,116,115,118,118,119,122,120,118,116,119,124,119,116,116,121,123,129,123,116,120,120,124,121,120,126,121,116,123,122,118,121,120,115,118,115,118,119,115,122,120,119,118,121,118,118,130,119,121,125,120,125,128,123,115,125,122,115,121,114,121,117,121,122,120,120,121,124,128,124,116,122,117,117,121,122,125,118,116,118,125,137,123,125,134,122,134,119,119,125,118,109,112,120,113,121,120,104,121,130,119,119,119,125,126,132,122,109,118,121
117,119,117,116,121,132,134,117,125,121,121,120,120,123,109,119,121,122,119,114,121,117,119,119,121,120,123,135,125,122,114,120,111,123,123,122,121,128,122,119,132,118,116,110,115,109,124,124,113,124,124,137,127,139,118,116,124,122,121,118,121,113,127,123,119,124,123,121,121,119,126,123,115,119,119,122,124,128,136,121,124,122,118,114,118,117,119,118,131,124,126,135,123,120,121,122,122,123,119,114,118,122,114,115,121,123,121,123,121,114,119,120,122,121,120,120,122,120,119,119,123,119,120,122,122,118,118,119
116,124,123,127,119,116,121,121,121,120,119,119,121,123,116,118,119,122,123,128,125,126,108,118,118,120,114,103,117,130,111,117,114,123,122,126,116,117,124,121,136,117,120,129,122,123,103,119,119,122,116,110,119,124,119,120,123,123,125,136,125,115,131,123,120,121,121,117,123,127,125,120,122,122,123,137,124,115,114,119,117,119,115,116,122,119,112,117,121,123,123,116,121,119,121,122,123,120,121,127,122,117,116,117,121,122,120,122,121,123,146,132,119,123,122,125,121,123,123,119,119,119,121,117,119,117,118,119
122,120,119,116,118,110,135,121,122,124,120,126,121,122,115,116,103,117,120,121,121,121,121,118,130,122,121,122,119,117,122,123,123,121,121,125,126,123,119,121,118,125,121,120,119,118,125,119,122,120,121,126,122,121,123,124,115,120,120,132,118,120,114,117,118,122,122,138,126,120,122,119,121,121,122,120,123,141,125,121,117,122,120,118,118,112,120,118,124,120,119,120,124,131,121,120,118,123,119,110,119,114,100,114,115,120,122,118,122,134,136,125,131,124,121,120,119,117,133,124,118,117,116,112,121,117,123,117
123,120,122,127,123,137,132,124,122,123,119,114,117,110,119,122,116,121,120,126,126,125,119,117,122,121,121,126,122,123,137,127,119,121,121,116,118,122,107,116,119,120,119,120,123,120,116,119,121,120,121,132,126,134,125,118,118,120,119,116,123,134,130,120,123,124,121,124,113,107,124,123,118,119,121,132,129,130,127,119,121,120,122,123,121,125,112,123,119,122,119,114,121,122,120,119,113,121,120,123,117,110,120,118,131,123,124,129,121,123,115,118,119,119,121,125,119,110,126,123,122,124,120,118,122,127,127,121
119,122,124,124,120,114,122,119,116,122,121,123,121,113,106,117,123,119,120,115,122,143,132,121,127,120,115,116,120,113,125,121,118,122,125,130,120,120,112,114,117,122,122,128,118,114,107,118,124,121,119,119,121,126,122,118,137,118,122,123,129,122,122,123,123,125,122,121,118,116,116,118,124,123,121,116,121,117,130,121,118,123,125,130,123,125,129,121,127,125,118,114,121,134,111,119,132,121,124,120,118,120,126,123,113,124,122,124,124,114,110,113,118,123,122,121,122,119,123,123,119,121,120,119,122,127,123,118
121,122,123,120,123,125,123,121,122,123,122,124,119,117,114,119,117,118,118,118,121,121,110,116,122,122,123,128,122,129,129,124,121,123,121,116,120,117,110,118,119,120,120,118,119,121,116,117,123,120,118,123,124,117,121,121,122,122,122,125,122,129,123,120,113,121,119,112,118,121,119,118,138,117,121,128,120,121,122,124,115,123,117,118,120,121,122,118,121,123,120,115,118,110,112,117,122,122,124,127,122,123,121,123,118,121,122,123,115,110,122,117,120,121,119,119,125,133,124,119,122,122,118,116,118,105,129,121
123,119,127,134,125,134,122,119,119,122,120,120,118,107,111,118,117,123,121,122,123,125,122,118,116,121,122,123,123,121,123,122,113,120,118,114,118,115,117,117,116,115,121,144,124,124,121,118,128,122,122,114,116,115,120,119,117,124,121,115,119,109,121,120,119,122,116,109,119,121,117,119,121,123,125,141,126,114,110,121,119,119,118,107,117,115,137,123,119,122,121,112,121,130,119,117,119,118,120,121,120,123,114,120,121,121,119,119,119,122,118,119,121,122,120,115,122,128,125,120,119,120,119,124,122,126,111,116
120,126,122,115,122,125,118,119,137,118,119,122,117,115,123,124,119,122,121,124,120,111,111,118,122,123,118,115,120,126,121,119,119,121,122,123,121,116,115,118,121,122,120,122,121,122,123,122,117,121,120,124,120,128,117,114,123,118,118,117,119,125,109,119,120,123,125,133,125,117,126,119,123,122,119,117,120,130,104,117,120,122,122,123,122,119,125,121,107,122,119,116,118,111,123,118,133,122,124,133,120,131,128,128,115,119,119,123,123,122,132,125,118,122,121,122,123,124,116,116,119,121,117,111,117,115,116,116
123,121,122,122,123,126,123,122,122,121,122,124,119,106,117,122,122,121,121,126,126,137,125,120,123,121,119,115,123,124,117,118,120,121,119,113,119,118,124,119,118,120,122,112,123,120,125,120,114,120,119,122,119,116,114,118,127,122,120,116,119,117,120,121,117,121,121,120,121,117,122,123,121,122,120,119,117,122,113,119,113,125,122,116,121,115,109,117,125,112,120,122,122,127,119,117,124,123,121,115,116,105,112,119,117,123,119,122,121,140,130,119,119,120,119,118,119,111,117,120,115,120,121,111,121,128,120,117
122,121,121,108,121,130,128,125,125,123,125,135,117,112,122,122,115,120,117,107,118,115,102,112,118,122,120,115,121,129,125,120,117,123,121,127,121,116,118,121,127,121,121,118,125,137,134,124,121,124,121,114,122,123,118,121,115,120,121,123,118,114,112,117,135,121,121,121,119,113,117,120,116,122,119,110,117,119,120,118,118,123,123,133,127,125,123,120,125,122,120,119,122,128,121,117,120,120,120,118,121,118,118,121,119,122,119,116,113,114,116,120,117,125,123,126,126,118,113,118,114,121,120,119,127,133,123,121
133,119,119,115,115,114,123,125,115,120,119,126,118,108,122,119,119,120,122,134,122,129,131,122,118,124,125,130,123,125,122,119,122,121,119,121,121,115,124,119,122,123,123,117,118,115,121,123,125,121,120,122,125,125,115,119,115,118,118,115,117,114,136,122,117,122,120,118,117,116,114,118,119,121,119,114,122,121,117,117,111,122,120,124,121,107,121,119,131,117,121,122,118,126,116,124,124,123,119,119,120,122,124,120,118,119,121,120,124,120,125,121,118,122,120,114,121,125,109,116,127,122,120,121,116,107,122,121
114,120,120,118,121,119,132,120,126,120,119,121,123,130,119,119,121,120,117,116,117,124,108,118,120,124,128,136,121,117,133,122,122,120,118,119,125,118,123,119,115,120,122,130,119,122,119,121,120,122,123,121,116,97,124,121,123,123,126,142,124,119,120,122,120,121,122,124,119,115,146,125,132,122,120,130,124,115,121,126,114,120,122,121,125,129,123,118,134,121,119,112,117,118,110,119,114,122,120,127,118,119,114,116,121,119,120,122,120,113,122,120,118,120,121,121,120,110,113,119,123,121,118,119,122,123,117,117
116,120,126,140,122,127,126,121,123,126,124,115,122,121,117,119,118,119,118,116,120,124,118,116,121,121,119,120,125,129,122,122,119,123,119,119,119,124,141,121,122,117,119,117,122,120,121,120,113,125,125,130,126,124,119,119,127,122,121,113,118,129,120,121,128,122,124,132,127,125,116,119,119,121,120,119,123,131,137,121,121,122,120,112,121,119,106,116,120,124,120,120,116,115,112,123,126,119,122,126,128,128,122,120,119,123,121,120,123,126,133,122,119,120,120,116,119,124,102,117,121,123,121,126,120,115,122,122
119,120,122,122,123,123,126,119,115,122,116,108,119,122,119,118,131,112,119,125,120,117,132,125,126,122,121,132,121,113,115,120,117,124,121,115,120,114,120,118,118,121,120,115,121,123,111,119,128,121,122,125,122,119,127,121,120,123,120,121,124,123,120,122,121,123,121,117,120,130,125,119,121,121,120,112,124,125,118,119,121,120,117,109,117,122,139,124,122,121,123,140,124,106,119,123,115,120,121,119,121,125,131,123,124,123,121,126,119,111,132,123,125,118,118,116,122,125,127,125,120,123,119,114,121,123,137,117
120,120,125,138,123,124,125,122,114,124,122,123,124,126,129,117,117,119,116,103,118,122,113,116,121,123,124,136,123,110,116,120,124,124,122,125,124,124,128,122,126,121,119,114,119,127,123,122,126,121,122,119,121,111,112,120,120,123,120,121,119,120,104,118,120,121,119,116,121,120,124,121,120,123,120,123,123,125,125,122,120,122,128,149,123,118,116,118,125,119,120,124,126,122,132,126,124,123,119,111,122,133,116,118,114,122,125,118,122,113,126,122,130,126,126,133,123,127,116,119,116,120,119,119,120,115,115,119
124,123,116,114,117,124,133,122,125,120,123,125,123,126,132,122,117,122,124,117,123,126,118,118,120,122,120,118,120,128,138,125,121,123,121,119,119,111,123,120,115,122,118,120,117,117,121,117,124,116,124,128,124,125,128,124,123,124,123,121,124,121,130,123,123,120,117,112,121,124,114,116,114,120,123,131,121,122,114,120,126,122,118,114,116,112,131,124,121,123,123,131,124,134,134,121,118,120,119,118,120,113,115,117,119,118,122,123,122,123,126,122,118,122,126,140,132,134,122,121,123,122,116,105,118,112,127,121
119,127,130,136,126,127,131,122,126,118,119,117,121,121,116,120,116,121,120,121,118,120,115,115,122,122,123,135,130,119,131,121,120,120,118,114,113,117,117,122,121,122,123,136,128,123,121,119,124,122,122,125,119,118,118,118,129,123,120,129,122,127,126,122,118,124,122,115,116,114,123,120,126,124,121,126,119,117,121,121,119,122,124,126,123,123,128,125,121,125,121,114,121,119,103,110,127,113,125,137,126,124,117,125,113,126,121,121,122,125,118,116,118,123,118,113,115,118,119,118,121,122,124,132,127,128,133,121
121,122,120,117,121,123,113,120,120,122,120,114,116,121,115,119,120,120,117,131,122,124,118,119,120,123,125,120,120,122,113,118,118,119,118,118,122,131,118,119,121,121,119,119,122,121,106,119,118,122,122,125,119,115,116,117,98,127,122,128,126,126,120,115,138,108,117,118,125,120,141,131,108,122,131,144,120,116,131,122,117,122,120,117,123,123,122,118,121,124,121,117,118,114,121,120,118,123,121,120,122,124,122,120,122,124,120,118,120,116,125,120,128,112,119,119,120,132,125,122,116,123,121,121,123,120,104,116
118,123,121,118,116,119,112,117,119,120,124,131,127,121,128,121,120,121,120,116,119,117,125,120,122,122,121,121,120,118,126,121,119,120,120,122,122,123,114,117,119,121,121,120,121,120,117,118,120,120,120,119,122,124,124,121,120,121,121,121,120,120,116,118,120,121,121,122,127,130,122,120,120,122,118,119,116,118,116,118,121,121,122,122,120,120,121,121,121,123,121,121,122,129,123,120,119,120,120,121,121,123,112,117,120,119,121,123,122,118,124,120,121,123,121,114,119,122,124,121,121,122,122,124,121,116,122,121
120,121,119,119,119,121,123,121,120,122,122,121,122,123,118,119,120,121,122,122,120,122,117,120,121,122,121,123,125,121,118,119,120,122,122,121,119,119,115,118,121,122,121,123,119,121,123,121,121,123,120,125,132,126,115,120,119,119,118,118,109,116,119,118,121,122,123,122,124,121,122,122,121,121,119,121,119,120,121,120,121,121,121,122,122,121,121,120,120,120,121,122,122,121,121,121,121,122,120,121,119,117,120,120,121,123,122,122,120,120,120,120,120,121,121,123,121,120,121,121,119,120,121,121,121,121,122,120
121,122,120,119,120,121,121,121,120,122,122,126,123,122,123,120,121,121,120,121,123,121,120,121,119,121,121,120,118,121,118,118,119,119,120,122,129,121,122,120,121,123,121,121,119,121,121,121,120,122,121,122,122,122,121,119,121,121,120,121,120,120,121,121,120,120,122,124,128,124,121,121,119,121,121,122,115,117,120,113,121,122,121,121,117,120,121,121,123,122,121,123,124,122,123,135,121,122,121,122,118,119,121,118,121,121,120,121,122,124,122,122,119,121,121,122,121,120,120,120,120,121,120,122,121,121,121,120
121,121,120,121,121,121,121,121,122,122,121,122,122,122,120,122,120,122,122,122,121,120,121,119,119,120,121,122,122,122,120,117,121,121,121,121,121,121,122,122,120,121,121,123,130,122,121,122,120,121,119,118,107,118,119,118,122,122,122,126,134,123,121,120,121,121,119,118,110,118,121,121,118,120,121,122,121,122,121,120,121,122,121,121,120,121,122,124,120,121,121,121,116,121,123,119,120,122,119,121,122,117,119,113,120,121,120,122,121,120,120,118,122,121,121,121,115,122,123,135,118,122,122,123,121,122,121,115
120,122,122,125,126,121,121,118,121,121,120,120,119,120,121,122,120,121,121,122,120,121,121,121,120,122,121,122,108,116,118,117,121,121,121,121,122,121,126,128,121,122,122,121,119,120,121,118,119,121,121,122,122,121,120,120,120,121,121,122,116,120,120,118,122,122,122,123,118,121,125,132,120,122,121,120,121,123,121,115,121,121,120,124,127,120,119,118,119,121,121,121,116,120,121,120,119,123,121,122,131,122,121,112,121,122,123,125,117,121,122,123,121,120,118,119,123,123,121,121,120,121,125,122,115,118,117,116
123,125,119,127,150,134,136,143,139,128,126,126,125,128,129,130,119,121,122,120,113,118,127,123,117,120,119,120,113,117,115,115,122,122,121,121,122,121,122,125,121,122,121,122,123,122,121,120,120,121,121,121,122,121,122,120,120,121,121,122,122,121,121,119,120,121,121,122,122,121,121,120,120,121,121,122,121,121,121,121,121,122,121,123,121,121,121,121,121,122,121,122,122,122,121,120,121,121,120,122,121,121,121,121,120,121,121,122,121,121,122,120,120,122,121,122,122,121,121,119,120,121,121,122,121,122,121,120
120,120,121,122,121,121,122,120,120,121,121,122,121,121,120,120,120,121,121,122,121,121,121,120,120,121,120,121,121,121,122,121,120,121,121,122,120,120,120,119,121,121,120,118,109,119,121,120,121,122,121,123,121,120,121,120,121,122,122,121,120,121,122,121,120,121,121,122,120,120,120,120,120,121,121,122,121,121,121,120,121,122,120,122,122,121,122,121,120,122,121,122,121,121,121,120,120,121,121,122,121,121,121,120,121,122,122,122,119,119,121,121,121,121,120,122,121,121,122,120,121,121,120,121,121,121,121,121
121,122,121,122,122,121,122,121,121,121,120,121,121,121,121,121,119,120,120,122,121,121,120,119,121,122,122,122,121,121,122,121,121,122,121,122,121,120,121,120,120,121,121,122,121,121,121,120,121,121,120,121,121,121,121,120,120,121,121,122,121,121,121,120,121,122,121,121,120,121,121,120,121,122,120,121,121,120,121,121,121,122,121,122,120,121,121,120,120,121,121,122,122,122,121,120,120,122,121,122,121,122,121,120,120,121,121,122,121,121,121,121,120,120,120,121,121,121,122,121,121,122,121,121,121,121,121,121
121,121,120,121,121,121,122,121,121,122,121,122,121,121,121,121,121,122,121,122,122,121,121,120,121,122,122,122,120,121,121,121,121,121,121,122,121,121,121,121,121,122,121,121,120,121,121,121,121,122,121,122,121,121,121,120,121,122,121,122,121,121,122,120,120,121,121,122,121,121,122,120,121,122,121,122,121,121,121,121,121,121,121,122,121,121,122,121,120,121,121,122,121,121,121,121,121,122,121,122,121,121,122,121,120,121,120,121,121,121,122,120,121,122,120,121,121,121,121,121,121,122,122,122,121,120,121,120
120,122,122,122,122,120,121,121,119,121,121,122,121,122,121,120,120,121,121,122,122,121,121,120,121,121,121,122,122,121,120,120,120,121,121,122,121,121,121,120,120,121,121,122,121,121,122,120,121,121,120,121,121,121,121,121,121,122,121,123,121,121,122,121,121,122,122,122,121,121,122,121,120,121,120,121,121,121,121,121,121,121,120,121,121,121,121,120,121,122,121,121,120,121,121,120,120,121,121,122,121,121,122,120,120,122,121,122,122,121,121,120,121,122,121,122,121,121,121,121,120,121,120,122,121,122,122,120
121,122,121,122,121,121,122,120,120,121,121,122,121,121,121,120,120,122,121,122,122,121,120,120,120,122,121,122,122,121,121,121,120,121,121,122,121,121,121,120,120,122,121,122,120,120,120,120,121,121,121,122,122,121,121,120,121,122,121,122,121,120,121,120,120,121,120,122,121,122,122,121,120,121,121,122,121,121,121,121,120,121,121,122,121,121,121,119,121,121,120,121,121,121,121,121,121,122,120,121,121,121,121,121,121,122,122,122,121,122,122,121,120,121,121,122,121,121,120,120,121,121,120,122,121,121,121,121
121,122,121,121,120,120,121,120,120,121,122,122,120,121,121,121,120,122,121,122,120,121,121,120,120,121,120,121,121,121,121,121,121,122,122,121,121,121,122,121,120,122,121,122,121,121,120,120,120,122,122,122,121,121,122,120,120,121,121,122,121,121,120,120,121,121,120,121,121,121,122,121,120,121,121,122,121,121,121,121,120,121,121,122,121,121,121,120,121,122,121,121,121,121,122,120,121,122,121,121,121,121,121,120,120,121,121,122,122,121,120,120,120,121,120,122,121,121,121,121,121,122,121,122,121,121,122,121
120,121,121,122,122,121,121,120,121,122,121,121,121,121,121,120,120,121,121,122,121,120,121,120,120,122,122,122,121,120,121,120,120,121,120,122,121,121,122,120,121,122,121,122,120,120,121,120,121,122,120,122,121,121,122,120,120,121,121,122,121,121,121,119,121,122,121,122,121,121,121,121,120,121,121,122,121,122,121,120,120,121,121,122,121,121,121,120,121,122,122,122,120,120,121,120,120,122,121,122,122,121,121,119,120,122,121,122,122,121,121,121,121,121,120,122,121,121,122,121,120,121,121,122,121,121,121,119
120,122,121,122,122,121,121,120,120,121,121,122,121,121,120,120,121,122,121,121,121,121,121,120,121,122,121,122,120,121,121,120,120,122,121,122,121,121,121,121,121,122,120,121,121,122,122,120,121,122,122,122,120,121,121,120,120,121,121,122,121,121,122,120,119,120,121,122,122,122,121,120,120,121,121,122,121,121,121,120,121,122,122,122,121,120,121,121,121,122,120,121,121,121,121,121,119,121,121,122,122,121,121,120,120,121,120,122,121,121,121,120,121,122,122,121,120,120,121,121,120,121,121,122,121,122,121,121
119,121,121,122,121,122,122,120,121,123,121,122,122,121,121,121,120,121,121,121,121,121,122,121,120,122,120,121,121,121,121,120,119,120,120,121,121,121,121,120,121,122,122,121,120,121,121,120,121,122,122,122,121,121,122,121,121,122,121,122,121,121,121,120,120,121,120,121,121,121,121,120,121,121,121,122,121,122,121,120,121,121,120,121,121,121,121,121,121,121,121,122,121,122,121,120,121,121,120,121,121,121,121,121,120,121,121,122,121,121,121,120,120,121,121,122,121,122,121,119,121,122,121,122,121,120,121,120
120,122,122,122,122,121,121,120,121,122,120,121,121,121,122,121,120,122,121,123,121,120,121,120,121,121,121,122,122,122,122,120,120,121,121,122,122,121,121,120,121,122,121,121,121,121,122,121,121,121,121,123,121,120,121,120,121,122,121,122,121,120,120,120,121,122,121,121,121,121,121,120,120,121,121,122,122,121,121,120,120,121,121,122,121,121,120,120,120,120,120,122,121,121,122,121,120,122,122,122,122,122,121,121,120,121,121,122,122,121,121,120,120,121,120,121,121,121,122,121,120,121,121,121,121,121,121,120
121,122,121,121,121,121,121,120,120,121,120,122,121,121,122,120,120,121,121,122,121,120,121,121,121,122,122,122,120,120,121,120,120,122,121,121,121,121,121,121,121,122,120,121,121,121,121,120,120,121,121,122,121,121,121,120,120,121,121,122,121,121,122,120,120,121,121,122,122,120,121,119,121,122,122,123,121,121,121,121,121,122,122,121,120,121,121,121,121,121,121,123,121,120,121,120,121,122,121,122,121,121,122,121,120,121,121,122,121,120,120,120,120,121,121,122,122,122,121,120,120,122,122,122,121,121,121,120
121,122,121,122,122,121,122,120,120,121,121,122,121,122,121,120,121,122,121,122,122,121,121,121,121,121,121,122,122,121,121,120,120,121,121,122,121,121,121,120,120,121,121,122,121,120,121,120,121,122,121,121,120,121,121,120,120,121,121,122,121,120,120,120,120,121,120,122,121,121,122,120,121,122,120,121,121,121,121,121,120,120,120,121,121,121,121,120,121,121,120,121,121,121,121,121,120,122,121,122,121,120,121,120,120,121,121,122,122,121,121,120,120,121,120,122,121,121,122,120,120,122,121,122,121,120,120,120
121,122,121,122,121,122,122,120,121,122,121,122,121,121,121,121,120,121,120,122,121,121,122,121,121,121,121,122,122,121,121,120,120,121,121,122,122,121,121,120,120,122,121,122,122,120,121,120,120,122,121,122,122,121,120,120,121,121,120,121,121,121,121,121,121,121,120,122,121,121,121,121,121,122,122,122,121,121,121,120,120,121,121,122,121,121,122,120,121,121,120,122,121,121,121,121,121,122,122,122,120,120,121,120,120,122,121,122,121,120,121,120,121,122,121,122,121,120,120,120,121,122,121,123,121,120,121,120
121,122,121,122,122,122,121,120,121,122,121,122,121,121,121,120,120,121,121,122,122,121,120,119,120,121,121,122,122,121,121,120,121,122,121,122,121,122,122,121,120,121,120,122,121,121,122,120,120,121,121,122,121,120,121,120,121,121,121,122,122,122,121,120,120,121,121,122,121,121,121,120,120,121,121,122,120,120,121,120,120,121,121,122,121,121,121,120,121,122,122,121,121,121,121,120,120,121,120,122,121,121,122,121,121,122,122,122,122,121,121,121,121,121,120,122,121,121,121,121,121,122,121,123,121,120,121,120
120,121,121,122,122,121,121,120,121,121,121,121,121,121,121,120,120,121,120,121,121,121,122,121,120,121,120,121,121,121,121,121,121,121,120,122,121,121,122,121,121,122,122,122,121,121,121,120,121,122,121,122,121,122,121,121,121,122,122,121,120,121,121,120,121,122,121,122,122,121,122,120,120,121,121,122,121,122,121,119,120,121,121,122,121,120,121,120,120,121,121,122,122,121,121,119,121,122,121,121,120,121,121,121,120,120,121,122,121,121,121,121,121,121,121,122,121,121,121,121,121,122,121,121,120,121,121,120
120,122,121,122,122,121,121,120,120,122,121,122,121,121,121,120,121,122,121,121,120,121,121,121,121,122,121,122,122,121,121,120,121,122,122,122,121,120,121,120,121,122,121,122,120,120,121,120,121,121,120,121,121,121,122,121,120,121,121,122,121,122,121,120,121,121,120,121,121,121,122,121,121,121,120,121,121,121,121,120,121,122,121,121,121,121,121,121,120,122,122,121,121,121,122,121,121,122,120,121,121,121,121,120,121,122,121,122,121,120,120,120,120,121,121,121,121,121,122,120,121,121,122,124,122,121,122,121
121,122,121,122,122,121,121,121,120,121,121,122,122,121,121,120,120,121,121,122,121,121,122,120,121,121,121,122,122,121,121,120,120,122,121,122,122,121,121,121,120,120,121,122,122,122,121,119,120,122,121,122,121,122,121,120,120,121,121,122,121,121,121,120,121,121,122,122,120,120,121,120,120,121,121,122,121,121,121,120,120,120,121,122,121,121,121,120,120,122,121,121,121,121,122,120,121,122,122,123,121,120,120,120,121,122,121,121,120,121,121,121,120,121,121,122,122,121,121,120,120,121,121,122,121,121,121,120
120,121,121,122,122,121,121,119,121,121,121,122,122,122,122,120,120,121,121,122,121,121,122,120,121,122,122,123,121,120,121,120,120,122,121,121,121,121,122,120,121,121,121,122,122,121,121,119,120,121,121,122,121,121,121,121,120,121,120,122,121,122,122,120,121,122,121,121,121,121,121,121,121,122,121,122,121,121,122,121,120,122,121,123,122,121,122,121,121,122,121,122,121,121,121,120,120,121,120,122,122,121,120,120,121,122,121,121,120,121,121,120,120,121,121,121,121,121,121,120,121,122,121,121,121,121,122,120
121,121,121,122,122,121,121,120,120,120,121,121,121,121,122,120,121,122,121,123,121,121,121,120,121,122,120,121,121,121,121,121,120,122,121,121,120,121,121,121,121,122,121,122,121,120,121,120,120,121,121,122,121,121,121,120,121,121,121,122,121,122,121,121,121,122,121,122,122,121,121,120,121,121,120,121,121,121,121,121,120,121,121,121,121,121,121,121,119,121,121,122,121,121,122,120,121,122,121,121,121,121,121,121,120,121,121,122,121,121,121,119,120,122,121,122,121,120,121,120,121,122,121,121,120,120,121,120
121,122,121,122,121,120,121,120,121,122,121,121,121,121,121,121,120,121,121,122,122,121,121,119,120,121,120,122,121,121,122,120,121,122,122,123,121,121,122,120,120,121,121,122,121,121,122,120,121,122,121,122,120,121,121,120,121,121,120,121,121,121,122,121,120,122,121,122,120,120,121,120,120,122,120,121,120,121,121,120,120,121,121,122,122,121,120,120,120,122,121,122,121,120,121,120,121,121,120,121,121,121,121,121,120,121,121,120,121,121,121,120,121,122,121,122,122,121,122,120,121,121,120,121,121,121,122,120
121,121,121,122,121,121,121,119,121,122,121,122,121,121,121,120,121,121,121,122,121,121,122,121,121,122,121,122,121,121,121,121,121,122,121,121,120,121,121,121,121,122,121,122,122,121,121,121,120,121,121,122,121,121,121,120,121,122,121,122,120,121,121,120,121,121,121,122,120,120,121,120,120,122,121,122,121,120,121,120,120,122,121,122,121,120,120,120,121,121,120,121,121,121,121,121,120,121,121,122,121,121,122,120,121,122,121,121,120,121,121,120,121,122,121,122,122,121,122,121,120,121,121,122,121,121,121,120
120,121,121,122,121,121,121,121,120,121,121,122,121,121,121,120,120,121,120,121,121,121,121,121,121,121,120,121,121,121,122,120,120,121,121,122,121,122,121,120,120,121,120,122,121,121,122,120,121,121,120,121,121,121,122,121,120,120,120,121,121,121,121,120,121,122,121,122,120,121,121,120,120,121,121,122,121,121,121,120,121,121,120,121,121,121,121,120,121,122,121,122,121,121,121,120,121,122,122,122,121,121,122,121,121,121,121,122,121,121,121,120,120,121,120,124,122,121,122,121,121,121,120,121,121,121,122,121
120,121,120,121,121,121,121,121,121,122,121,122,121,121,122,121,120,121,121,122,121,121,121,120,120,121,120,122,121,121,122,120,121,122,121,122,121,121,122,121,120,122,121,122,122,121,121,120,121,121,121,122,122,122,121,120,121,122,121,121,120,121,121,120,121,122,121,122,121,121,122,121,121,122,120,121,121,121,121,121,120,121,121,122,122,122,121,120,121,122,122,121,120,120,121,120,121,122,121,122,121,122,122,121,121,121,121,121,121,121,121,119,120,121,121,126,122,121,122,121,120,120,120,121,121,121,121,120
121,122,121,122,121,121,122,120,120,121,121,122,122,121,121,120,120,122,121,122,121,120,121,120,121,121,121,122,122,121,121,120,121,122,121,122,121,121,122,121,121,121,120,121,121,121,122,121,120,121,121,122,121,121,121,120,121,122,122,122,120,121,121,120,120,121,121,122,122,121,121,120,121,122,121,122,121,122,122,121,120,120,120,122,121,121,121,121,120,121,121,121,121,121,122,120,120,121,121,121,121,121,121,120,121,121,120,121,121,121,122,121,120,121,121,122,122,120,121,120,121,122,121,121,120,121,121,120
121,122,121,122,121,120,121,120,121,122,121,121,120,121,121,120,121,122,122,122,121,121,121,121,121,122,121,121,120,121,121,120,120,121,121,122,121,121,122,121,120,121,120,122,121,121,121,120,120,121,121,122,122,121,120,120,121,122,120,121,121,121,122,121,120,121,121,122,121,121,122,120,121,122,121,122,121,121,122,120,121,122,121,122,121,120,121,120,121,122,121,122,122,121,122,120,120,121,121,122,121,121,121,120,120,121,121,122,121,120,121,120,121,121,120,122,121,121,122,121,121,122,121,122,121,120,121,120
120,121,121,122,121,120,121,120,121,122,121,121,120,120,121,120,121,122,121,122,121,121,121,121,121,122,120,122,121,121,121,121,120,121,121,122,121,121,122,120,121,122,121,122,120,120,121,121,120,121,119,121,121,121,122,120,120,121,121,120,121,121,121,120,121,122,121,125,123,122,121,121,121,122,120,120,121,121,122,120,121,121,121,122,122,121,121,120,120,121,121,122,122,121,121,119,120,121,121,122,121,121,121,120,120,121,121,121,121,121,121,120,120,122,121,122,122,121,120,120,120,121,121,122,122,122,121,119
121,122,121,121,120,121,121,121,120,121,121,121,120,120,121,120,121,121,121,122,121,121,122,121,121,122,121,121,120,121,121,121,121,121,120,121,121,121,121,121,121,122,121,122,121,122,122,121,121,122,121,121,120,121,121,120,121,121,121,122,122,121,121,120,121,121,120,121,121,121,121,121,120,121,120,121,121,121,122,121,120,121,121,123,122,122,121,120,120,121,120,121,121,121,121,120,121,122,121,122,121,122,122,120,121,122,122,122,121,121,121,121,121,121,120,121,121,121,121,121,121,122,121,122,122,120,120,120
120,121,121,122,121,121,121,120,120,121,121,122,121,121,121,121,121,122,121,122,122,122,122,120,121,122,121,123,122,121,121,120,121,122,122,122,121,121,122,121,121,122,121,123,121,120,121,120,121,122,121,122,121,121,121,121,120,122,121,122,121,120,121,120,120,122,121,122,121,121,121,120,121,121,120,121,121,121,122,121,121,122,121,121,120,121,121,121,121,122,121,122,121,121,121,120,121,121,121,122,122,121,122,120,121,121,120,121,121,121,122,120,121,122,121,121,121,121,121,121,121,122,121,122,122,122,121,120
120,122,122,122,120,121,121,120,121,121,121,121,121,120,121,120,120,121,121,126,122,120,121,120,120,121,120,121,121,121,122,120,120,122,121,122,121,120,121,120,121,121,120,121,121,121,122,121,121,121,120,121,121,121,122,121,120,121,121,122,122,122,121,119,121,122,122,122,121,121,121,121,121,122,121,121,121,121,121,120,120,122,121,122,121,121,122,121,121,121,121,122,121,121,121,120,121,122,121,121,121,122,122,121,120,121,121,122,121,121,120,120,121,121,121,121,120,121,121,120,121,122,121,122,121,121,121,120
121,121,121,122,121,121,122,120,121,122,121,121,120,121,121,120,120,121,121,121,121,122,121,120,121,121,121,122,121,122,121,120,120,122,121,122,121,121,122,121,121,122,121,122,121,121,122,121,121,122,121,121,121,121,122,120,120,121,120,122,121,121,122,121,119,121,121,122,121,121,122,120,121,122,121,122,120,121,121,120,120,121,121,122,122,121,121,120,120,122,121,122,121,121,121,120,121,122,122,122,121,121,121,120,120,122,121,122,121,120,121,121,120,121,121,123,122,121,121,121,120,121,121,122,121,121,121,120
120,122,121,122,121,121,122,120,121,122,122,121,120,120,121,120,119,120,121,122,121,122,121,120,120,121,120,122,121,121,122,121,120,121,121,122,121,121,122,120,120,121,121,122,121,121,122,120,120,121,121,122,121,121,121,120,120,121,121,122,122,120,120,120,121,122,121,121,120,121,121,121,121,122,121,122,121,122,122,120,121,121,120,122,121,121,122,120,121,122,121,122,121,121,122,121,120,121,121,122,122,121,120,120,120,121,120,122,121,121,121,121,121,122,122,122,120,120,121,120,121,122,121,122,122,121,121,121
120,121,121,122,121,122,122,120,120,121,121,122,121,121,121,120,120,122,121,122,121,120,121,120,121,122,121,122,121,120,121,120,121,122,121,122,121,120,121,120,121,122,121,122,122,121,122,120,121,122,121,122,121,121,122,120,121,122,121,122,122,121,121,120,120,121,121,122,121,121,122,121,121,122,120,121,121,121,121,121,120,121,120,122,121,121,122,120,121,121,121,122,121,121,121,121,120,122,121,122,122,122,122,120,121,122,120,121,121,121,121,121,120,121,120,121,121,121,121,121,120,121,120,122,121,121,122,121
121,121,121,121,121,121,121,121,121,121,120,121,121,121,122,121,120,121,121,122,121,121,122,120,120,121,121,122,121,122,122,121,120,121,121,121,121,121,121,121,120,121,121,121,121,121,121,120,120,121,121,122,121,121,122,120,121,122,121,122,121,121,121,120,121,122,121,122,121,121,121,120,121,121,121,122,120,120,121,120,120,121,121,122,121,121,120,120,120,122,121,122,121,121,122,121,120,122,121,122,121,120,121,120,121,122,122,121,121,121,122,121,120,121,120,122,121,122,121,120,120,122,121,122,121,120,121,120
120,121,121,122,121,122,121,120,121,123,122,122,121,121,122,121,120,120,120,121,121,121,122,120,121,121,121,122,121,120,121,120,120,122,122,122,121,120,120,120,120,121,121,122,122,121,121,120,120,121,121,122,121,121,122,121,121,121,121,122,122,122,121,120,120,122,121,122,121,121,120,120,121,122,121,122,120,121,121,120,121,122,120,122,122,121,122,120,120,121,121,122,122,121,122,120,121,121,120,121,121,121,122,121,121,122,121,121,120,121,121,121,121,122,121,121,120,121,121,120,120,121,121,122,121,121,121,120
121,121,120,121,121,121,121,121,121,122,121,121,121,121,121,121,120,122,122,122,121,120,120,120,121,122,122,122,121,121,122,121,121,121,120,121,120,121,122,120,121,121,121,122,122,121,121,120,120,121,121,122,121,121,121,120,121,122,121,121,121,121,121,121,120,122,121,121,121,121,122,120,120,122,121,121,121,121,121,121,120,121,121,122,121,121,120,120,121,122,120,121,121,121,121,120,121,122,121,121,121,121,122,121,121,121,121,122,121,122,121,120,121,121,121,122,122,122,121,120,120,121,121,122,121,121,121,119
121,122,121,122,122,121,122,121,121,121,120,121,121,121,121,120,121,122,121,121,121,121,122,121,121,122,121,122,120,120,121,120,121,122,121,122,120,121,121,120,121,122,121,122,121,121,122,120,120,121,121,121,120,120,122,120,121,121,121,122,121,121,121,121,121,122,121,121,121,120,121,120,120,122,121,122,122,122,122,120,119,120,120,122,121,121,122,120,121,121,120,121,121,121,122,120,121,123,121,122,121,121,122,121,121,122,121,122,121,120,121,120,120,121,121,122,121,121,122,120,121,121,120,121,121,121,122,121
121,121,121,121,120,121,121,120,120,121,121,122,122,121,122,120,121,122,121,122,121,121,122,121,119,120,121,121,121,121,122,120,120,121,121,122,121,121,121,120,120,121,121,122,121,121,121,121,121,122,121,122,122,121,122,121,120,121,121,122,121,122,121,120,121,122,120,121,121,121,122,121,120,121,121,122,122,121,121,120,120,121,120,122,121,121,121,121,119,120,121,122,121,121,121,119,120,122,121,122,122,121,121,120,121,122,121,122,121,122,122,121,120,122,121,122,122,121,121,120,121,121,121,122,121,121,120,120
121,122,121,122,121,120,121,120,121,121,121,122,122,121,121,121,120,121,121,122,121,121,121,120,121,121,121,122,121,121,122,121,121,121,121,121,121,121,122,121,121,122,121,121,121,121,122,120,121,122,121,122,121,121,121,121,121,121,121,122,122,122,122,120,120,122,121,122,121,120,121,120,121,122,121,121,121,121,121,121,121,122,121,121,120,121,121,120,120,121,121,122,122,121,121,120,121,122,121,122,121,120,121,120,121,121,120,121,121,122,122,120,120,121,121,122,121,121,120,120,120,121,121,122,121,120,121,120
120,120,121,122,121,121,122,121,121,122,121,121,121,121,121,120,121,121,120,121,121,121,122,121,121,122,121,121,121,121,122,121,121,122,121,122,122,121,121,120,121,122,121,122,120,121,121,120,120,122,121,122,122,121,121,120,120,120,120,121,121,121,122,121,121,121,121,122,122,121,121,120,120,122,121,122,121,121,121,120,121,122,122,121,121,121,121,121,121,122,121,122,121,120,121,120,120,121,120,122,121,121,122,120,120,121,121,121,121,121,122,120,121,121,121,122,122,121,121,120,121,122,122,122,121,121,121,120
121,121,121,122,121,120,120,120,120,121,121,122,121,121,120,120,120,121,121,122,121,121,122,120,120,121,121,122,122,121,121,120,121,121,121,122,121,121,122,120,121,122,121,122,121,122,121,121,121,122,122,122,120,120,121,120,121,121,121,122,121,120,121,120,121,121,120,121,121,121,121,121,120,121,121,122,121,121,122,120,121,122,121,121,120,121,121,120,120,120,121,121,121,121,122,121,120,121,121,122,121,121,121,120,121,121,120,121,121,121,121,121,121,121,121,122,121,121,121,120,120,121,121,122,121,122,121,120
121,121,121,122,122,121,121,119,121,121,120,121,121,121,121,120,120,122,121,122,121,120,121,120,120,121,121,122,122,122,121,119,120,121,121,122,121,121,121,120,121,121,121,122,121,121,121,120,121,123,121,121,121,121,121,121,121,122,121,121,121,121,122,120,120,121,120,122,122,121,121,120,120,122,121,122,121,120,121,120,120,121,120,121,121,121,121,121,121,121,121,122,122,122,122,120,121,122,121,122,121,121,121,120,121,122,120,121,121,121,122,121,120,121,121,122,121,121,121,119,120,121,120,122,122,122,122,120
120,121,121,121,121,121,121,121,120,121,121,122,121,120,120,119,120,121,121,122,122,121,121,120,121,122,121,122,120,120,121,120,121,122,121,122,120,121,121,120,120,121,121,121,122,121,121,121,120,121,121,122,122,121,121,120,121,122,121,122,120,118,122,121,121,121,122,122,122,122,121,121,120,120,121,122,121,122,121,119,121,122,120,121,121,121,122,121,120,121,120,121,121,121,121,121,121,122,121,122,121,122,121,121,121,121,121,122,122,122,121,120,120,121,121,122,121,121,121,120,121,122,120,122,121,122,122,120
120,121,121,122,121,120,121,120,121,121,120,121,121,121,121,121,120,121,121,122,121,121,122,121,120,121,121,122,121,122,121,120,121,121,121,122,121,121,120,120,120,121,121,121,121,121,121,121,121,121,121,122,121,121,121,120,120,122,122,122,121,121,121,121,120,121,121,122,121,120,121,120,121,122,121,122,122,121,121,120,120,121,120,122,121,121,122,120,121,122,121,121,121,121,121,121,121,121,120,121,121,121,122,121,120,121,121,122,121,121,122,121,121,122,120,121,121,121,122,121,121,121,121,122,121,121,122,120
121,122,121,122,121,121,122,121,121,122,122,121,121,121,121,121,121,121,121,122,122,122,121,120,121,122,121,122,121,121,121,121,121,121,121,122,122,122,122,120,121,121,120,121,121,121,121,120,120,121,122,122,121,120,121,120,120,121,120,122,121,121,122,120,121,122,121,122,121,121,122,120,120,122,121,122,122,122,120,119,120,120,120,122,122,121,121,120,121,122,121,123,122,121,122,121,120,122,121,122,121,121,121,119,120,121,121,122,121,121,121,120,121,122,121,121,121,121,122,120,120,121,120,122,122,122,122,120
120,122,121,122,121,120,121,120,120,121,120,122,121,121,122,120,121,121,121,121,121,121,121,121,121,122,121,122,121,120,121,120,120,121,121,122,121,121,122,120,121,122,121,122,121,120,121,120,120,121,121,121,121,121,121,120,120,121,121,122,121,121,122,120,121,121,121,122,121,121,122,120,121,122,121,122,121,121,122,121,120,122,121,122,121,122,120,120,121,122,122,122,120,121,121,120,121,121,120,121,121,121,121,121,120,121,120,122,121,122,121,120,120,122,121,122,121,121,122,120,120,121,121,122,122,121,121,120
121,121,121,122,122,122,121,120,121,122,121,122,121,121,122,121,121,122,121,122,121,121,121,120,121,122,122,121,120,121,121,120,121,122,120,121,121,121,121,121,121,122,121,122,121,121,122,120,120,121,120,122,121,121,121,120,120,122,121,122,122,121,121,120,120,121,121,122,121,121,120,120,121,121,120,121,121,121,122,120,120,122,121,122,122,122,121,120,120,121,121,122,121,120,121,120,121,121,121,122,121,121,121,121,120,121,121,122,121,122,122,120,120,121,120,121,121,121,121,121,120,120,121,122,121,121,122,120
120,120,120,122,121,121,122,120,121,123,122,121,120,121,121,120,120,121,121,122,121,121,121,120,120,121,120,121,121,121,121,121,121,122,121,121,120,121,121,120,120,121,121,122,121,122,121,120,121,122,121,121,120,121,121,121,121,122,122,122,121,121,121,121,121,121,121,122,122,122,121,120,120,121,121,122,121,121,121,120,120,121,120,122,121,121,121,119,121,122,121,122,122,121,122,121,121,122,121,122,121,120,120,120,120,121,121,122,121,122,121,120,121,121,121,122,121,121,121,120,121,121,121,121,121,121,122,120
121,122,121,121,121,121,121,120,121,122,121,121,121,121,122,121,121,122,121,122,122,120,120,120,120,122,121,122,121,121,121,121,120,121,121,122,122,121,120,119,120,122,121,121,120,120,121,120,121,122,121,121,120,121,121,120,120,121,121,122,121,121,121,120,121,121,122,122,122,121,121,120,119,121,120,122,121,121,122,120,121,122,121,122,121,121,122,120,121,121,120,121,121,121,121,121,121,121,120,121,121,121,121,121,120,121,121,122,121,121,122,120,120,121,121,122,121,121,121,119,120,120,121,122,121,121,122,120
120,121,121,122,122,121,121,120,121,122,122,122,121,120,121,120,121,122,121,121,121,121,121,121,120,121,121,122,122,121,121,120,121,121,120,121,121,121,122,121,121,122,121,122,121,121,121,120,120,121,121,122,122,121,121,120,120,122,122,122,121,120,120,120,120,121,120,121,121,121,122,121,121,122,121,122,122,122,121,121,120,120,121,122,121,121,122,120,121,121,122,122,121,121,121,119,121,121,121,122,122,121,121,120,120,121,122,122,122,121,121,120,121,122,121,121,121,121,122,121,121,122,122,122,121,121,121,120
121,122,121,122,121,121,121,121,121,121,121,122,121,122,121,120,120,121,120,121,121,121,121,120,120,121,120,122,121,122,121,119,120,122,121,122,121,121,121,120,121,122,120,121,121,121,121,121,121,121,121,122,121,121,121,120,120,120,120,122,121,121,122,120,120,122,121,122,122,121,120,120,121,122,120,121,121,121,121,121,120,121,121,122,122,121,121,120,121,122,121,122,122,122,122,121,120,121,121,122,121,121,121,120,120,122,121,122,121,121,120,120,121,122,121,122,121,120,121,120,120,121,121,122,121,121,121,120
120,121,120,122,121,121,121,121,120,122,121,122,122,120,120,119,121,121,120,121,121,121,121,121,121,123,121,121,120,120,121,120,121,122,122,122,121,121,122,121,121,122,121,121,121,121,122,121,119,119,119,121,121,121,121,120,121,122,120,121,121,121,121,121,120,121,121,122,121,121,122,120,120,121,120,122,121,121,122,120,121,122,122,122,120,120,121,121,121,121,120,121,121,121,121,121,120,121,121,122,121,120,121,120,121,122,121,121,121,121,121,120,121,122,121,122,121,121,122,121,121,122,121,121,120,120,121,121
120,121,121,122,121,121,122,120,120,121,121,122,122,121,120,120,121,121,120,121,121,121,121,120,120,121,121,122,121,121,121,120,120,122,121,122,121,121,121,120,121,122,121,122,121,122,122,120,120,121,121,122,121,120,121,120,121,121,121,122,121,122,121,120,120,121,121,121,121,121,122,120,121,121,121,122,122,122,122,120,121,122,121,122,122,121,120,120,121,122,121,122,121,121,121,120,121,122,121,122,121,121,121,120,120,121,121,122,121,121,121,120,121,122,121,121,120,121,121,120,121,121,121,122,121,121,121,121
120,122,121,122,122,121,121,121,120,121,121,122,122,121,121,120,121,122,122,122,122,121,121,121,120,121,121,122,121,121,121,120,121,121,120,121,121,121,122,121,121,122,121,121,121,121,121,120,120,121,121,122,121,121,121,121,121,121,120,121,121,121,122,121,120,122,121,122,122,121,122,120,121,122,121,122,121,121,121,120,121,121,121,122,121,120,121,120,121,122,121,122,121,120,121,121,121,122,121,122,121,120,121,120,120,121,121,122,121,120,121,121,120,122,121,123,122,121,121,120,121,122,121,122,121,121,122,121
121,122,121,121,121,121,121,121,119,121,121,122,122,122,121,119,120,121,120,122,121,121,122,121,121,122,122,122,121,121,121,120,121,122,121,121,120,121,121,120,121,122,121,121,121,121,121,121,120,121,121,121,121,121,122,121,120,121,121,122,122,121,120,120,121,121,120,121,121,121,122,121,121,122,120,121,120,121,121,120,120,121,121,122,121,121,122,120,120,121,121,122,121,121,121,120,121,122,122,122,122,121,122,121,120,121,120,122,121,121,122,120,120,121,121,122,121,121,121,120,120,121,121,122,122,122,121,120
121,122,121,122,121,121,121,121,120,120,119,121,121,121,122,121,120,122,122,122,120,121,122,120,121,122,121,121,120,121,122,120,121,122,121,121,121,121,122,121,120,121,121,122,121,121,122,120,120,121,121,122,121,121,120,120,121,122,122,122,121,120,121,120,121,121,120,122,121,121,122,120,120,121,121,122,121,122,121,120,120,122,121,122,120,120,121,120,120,122,121,122,122,121,121,120,120,122,121,122,122,121,120,120,120,121,121,122,122,121,120,120,121,122,121,121,121,121,121,121,120,121,121,122,122,121,121,120
120,121,121,122,121,120,120,120,120,121,121,122,121,122,121,120,120,121,121,122,121,122,121,120,120,121,121,122,121,121,121,121,120,121,121,122,121,121,121,120,121,122,121,122,120,120,121,120,120,120,120,122,121,121,120,120,120,121,121,122,122,121,121,120,121,122,120,121,121,121,122,122,120,121,121,122,121,122,121,120,120,122,122,122,118,119,119,119,122,123,122,123,125,123,124,122,121,121,120,120,122,123,120,121,120,121,121,122,115,117,120,120,121,122,120,121,121,121,122,121,120,122,121,122,122,121,121,120
121,121,121,122,121,120,121,120,121,121,121,122,121,122,121,119,121,121,121,122,121,121,121,120,121,122,121,122,121,122,122,121,120,121,120,122,121,121,121,120,121,122,122,122,120,120,121,120,120,121,120,121,120,121,121,120,118,121,121,122,120,118,106,114,121,122,121,121,120,122,129,123,120,121,121,122,121,121,116,117,119,120,120,120,118,118,121,119,120,122,122,122,123,121,119,119,120,121,121,121,121,122,122,120,120,121,121,124,132,124,121,120,121,122,121,122,121,121,122,121,121,122,121,122,121,122,122,120
121,121,120,122,121,121,122,121,121,122,121,121,121,121,121,121,121,122,121,122,121,122,121,121,120,120,120,122,121,121,122,121,119,121,122,122,122,121,123,119,121,122,121,120,119,120,120,123,120,121,121,121,120,121,128,123,119,121,121,122,121,119,118,115,118,118,119,121,121,119,105,117,114,121,120,122,127,121,117,95,128,125,123,123,115,126,136,157,116,121,121,121,118,116,118,107,119,120,121,122,119,123,114,97,116,120,119,117,120,124,127,152,120,121,120,120,114,116,108,85,115,120,121,123,123,126,147,160
145,125,124,125,125,129,155,139,99,113,116,116,118,113,84,70,112,119,120,122,116,118,121,124,139,127,121,113,100,122,101,118,109,120,119,119,110,119,90,122,116,119,118,116,117,131,141,107,140,126,123,127,135,117,122,106,110,117,119,123,128,117,116,95,106,120,119,119,106,115,104,110,152,123,122,123,119,118,117,153,113,127,131,147,171,137,129,84,105,121,121,121,114,119,109,94,139,121,120,115,99,116,136,145,112,116,122,124,119,119,111,80,120,129,126,131,143,132,117,118,107,122,119,119,114,118,117,108
131,120,120,120,116,118,107,97,132,113,119,119,119,121,113,164,117,125,122,118,109,128,142,144,94,121,120,127,127,115,122,94,137,120,121,121,121,119,123,118,101,122,120,121,119,116,122,103,128,122,123,124,108,125,121,169,129,125,123,132,153,122,140,134,116,121,119,118,112,118,107,77,130,121,119,113,106,116,123,144,115,131,122,119,108,129,104,121,118,120,119,121,118,113,119,110,103,108,115,117,113,117,115,81,124,120,123,120,124,123,137,161,128,126,121,121,119,116,108,121,106,117,117,118,123,117,104,90
120,121,119,117,96,114,115,100,138,126,122,118,108,114,126,177,115,125,121,117,106,120,117,86,128,122,122,121,128,123,123,119,125,125,124,133,153,124,152,140,105,121,121,122,119,124,100,83,122,131,121,120,114,113,109,122,111,120,125,125,124,126,137,99,103,124,119,120,123,120,93,87,127,114,121,120,116,122,118,116,112,127,119,121,121,114,128,101,92,124,122,123,118,120,117,120,166,129,126,122,124,130,145,156,117,132,127,141,195,129,126,117,109,121,122,123,109,126,109,117,118,119,121,121,117,125,133,143
117,119,119,116,98,127,127,95,120,122,122,124,139,117,113,111,123,122,123,121,121,120,124,157,142,121,120,125,123,117,120,117,100,122,118,119,118,121,116,117,126,112,120,121,120,121,130,100,136,126,121,121,120,119,121,147,129,127,122,119,117,118,106,87,122,120,119,120,118,113,81,78,142,126,122,121,112,125,158,185,118,116,115,110,88,112,110,128,108,125,121,119,121,116,123,95,124,119,120,122,129,122,146,131,124,122,119,110,105,132,125,132,118,117,120,122,127,123,109,138,115,112,119,128,147,119,149,105
136,138,123,122,122,130,156,150,113,118,118,120,118,115,112,82,128,107,116,116,107,116,121,129,95,135,123,118,115,116,117,98,139,126,123,123,121,126,101,110,137,125,122,116,89,114,143,145,107,115,120,126,141,111,124,111,123,130,118,122,134,121,104,112,107,113,122,119,112,118,115,83,142,161,122,119,118,118,134,173,101,89,114,112,122,113,105,86,104,110,114,124,143,124,108,78,133,139,116,132,138,128,139,217,129,173,123,124,119,115,117,96,134,85,104,122,127,125,135,132,97,110,75,118,142,111,110,112
110,123,71,123,125,120,145,123,122,136,96,125,120,121,143,158,118,108,94,124,123,123,129,124,123,132,87,121,118,122,135,128,113,108,47,119,110,121,111,100,121,116,86,122,119,125,80,87,138,108,177,116,117,122,140,136,117,147,197,121,98,124,137,110,117,101,173,126,140,121,117,123,115,128,105,118,115,111,137,124,116,122,162,115,100,116,117,85,134,136,113,106,67,121,141,175,127,143,128,123,100,100,97,115,106,82,219,115,116,114,125,110,102,124,195,117,117,116,115,91,133,129,151,122,121,129,140,179
120,139,118,124,122,122,117,89,117,116,111,123,121,120,127,105,159,113,120,116,116,114,114,151,97,125,133,115,103,127,131,100,117,122,110,115,109,121,108,82,110,132,122,124,116,112,98,83,131,115,127,118,111,118,128,127,126,124,121,118,101,105,160,137,111,109,123,118,140,128,141,113,138,146,123,130,140,135,149,132,117,120,124,125,120,121,107,82,121,123,117,136,148,128,111,149,116,113,108,132,162,121,128,111,110,127,111,120,117,119,119,101,145,114,116,122,124,125,132,143,99,122,109,115,106,114,101,84
133,119,120,122,135,124,114,125,99,118,119,121,117,118,130,109,144,117,121,122,124,128,107,148,115,112,119,120,125,133,130,123,121,138,120,124,139,119,128,116,125,117,119,131,155,126,125,124,107,121,117,123,121,128,123,115,128,120,125,121,118,119,125,173,127,125,124,123,104,120,122,133,118,119,117,120,118,115,119,110,122,123,121,121,120,120,122,124,114,116,119,119,117,129,109,104,112,117,117,119,108,111,108,104,116,125,120,121,123,118,121,100,128,128,122,121,120,122,119,136,120,124,123,121,120,120,119,156
130,105,115,117,116,115,118,102,112,115,116,111,83,113,99,110,109,116,117,124,129,116,118,80,112,134,115,121,116,116,115,138,142,115,123,123,120,131,152,113,114,122,119,117,100,113,107,90,130,132,125,149,167,130,133,175,119,125,125,126,125,122,116,89,122,122,125,123,122,126,135,146,116,117,120,120,119,125,99,115,127,125,119,121,119,121,151,132,107,118,121,121,116,111,110,100,115,119,116,117,115,113,86,103,142,113,123,119,112,123,153,200,109,136,123,123,126,117,92,95,130,108,117,121,124,125,135,119
109,132,116,121,115,116,116,111,120,111,121,119,105,124,129,145,111,129,121,126,130,112,135,104,129,121,117,121,119,119,129,111,119,121,121,124,122,119,127,131,115,123,120,122,119,119,111,112,122,125,119,119,110,117,140,135,127,119,125,122,113,120,100,117,121,126,121,122,109,119,121,116,114,120,117,120,120,113,111,110,115,118,121,121,120,121,118,130,128,121,121,123,121,122,120,129,114,116,115,119,119,118,107,128,118,116,121,121,120,118,116,103,125,122,124,125,120,120,119,122,122,118,120,120,122,124,92,114
118,120,120,113,98,119,134,131,120,116,117,117,107,113,100,105,122,124,125,122,98,118,123,108,132,134,123,123,117,127,123,157,124,114,121,122,120,116,109,100,117,121,120,119,113,122,103,114,122,124,122,127,135,115,169,140,118,124,121,122,117,124,120,93,121,119,119,121,116,117,115,106,127,122,121,115,96,112,121,144,119,121,123,124,127,125,140,148,123,127,120,119,119,121,118,117,123,112,119,120,120,120,116,102,111,119,124,123,122,122,118,91,117,130,121,123,120,116,117,114,117,110,120,124,126,119,151,133
123,132,118,114,109,112,121,128,121,109,122,127,136,123,124,129,117,127,122,117,115,126,121,95,122,126,122,121,121,119,110,118,121,122,119,125,117,118,109,123,125,123,122,123,122,122,154,124,129,121,120,122,122,124,143,176,116,116,121,117,112,117,93,98,114,127,120,123,121,121,118,116,124,118,120,122,123,121,119,122,117,115,117,117,117,121,120,115,124,125,126,139,165,122,119,116,118,123,122,122,113,122,120,101,116,123,120,120,117,117,124,157,127,119,119,120,119,131,164,158,130,123,125,130,137,124,126,123
118,124,120,120,119,118,107,118,121,122,120,119,112,118,139,126,119,121,123,123,119,118,113,101,118,120,121,116,107,121,121,136,124,122,123,125,122,119,117,117,124,120,118,116,109,116,122,120,116,116,119,121,121,111,113,89,126,132,122,123,124,116,151,147,119,123,123,122,115,114,110,112,114,121,117,119,113,113,118,112,118,114,116,119,117,113,118,117,118,112,119,123,116,118,121,116,118,130,121,112,105,119,104,144,124,123,122,121,120,123,120,118,114,123,118,120,116,118,118,109,127,122,119,117,115,117,134,130
120,119,121,122,125,118,134,124,113,122,117,116,113,120,107,86,122,119,122,122,120,120,121,119,119,122,122,125,127,119,118,103,121,131,122,122,122,123,129,139,113,114,120,122,119,120,108,104,122,115,122,122,123,122,117,90,138,123,123,121,120,123,123,172,120,119,125,125,127,121,126,128,110,128,121,123,122,122,117,125,124,112,115,119,120,122,112,128,131,120,121,126,136,122,134,126,119,125,122,121,99,122,126,107,130,126,121,119,111,120,133,158,110,119,118,119,116,117,114,108,118,119,122,122,125,122,115,102
126,134,121,118,112,115,109,106,117,118,117,115,113,122,139,149,117,117,121,123,119,117,114,104,122,122,121,119,109,120,103,123,114,119,118,116,105,113,109,97,120,121,120,120,121,127,113,136,122,127,122,123,121,121,126,126,132,123,120,118,114,118,131,126,112,117,120,122,121,121,122,112,116,122,121,122,120,121,122,112,127,120,120,119,120,118,130,151,115,124,120,122,124,116,149,125,120,119,122,122,120,123,113,111,132,137,121,123,127,119,124,125,109,103,117,118,106,115,125,135,127,125,120,121,116,120,125,125
117,126,122,121,119,119,121,105,123,118,122,120,116,124,115,127,118,123,121,124,122,128,112,103,119,118,120,116,117,131,93,110,121,123,121,125,122,119,129,135,107,122,119,118,111,116,118,85,129,122,121,121,125,126,115,125,120,117,122,117,89,122,124,115,121,126,121,127,134,121,133,126,120,131,125,118,116,128,102,113,120,121,118,122,120,118,120,117,115,117,118,120,123,120,113,101,127,127,124,126,125,127,139,139,117,120,121,122,119,121,120,104,119,126,123,123,116,128,128,122,128,123,119,119,121,128,149,148
115,117,119,119,120,124,106,101,120,128,120,121,115,121,127,120,120,116,119,124,127,125,128,114,122,134,122,121,120,123,125,139,115,110,121,121,120,118,121,116,128,124,121,122,120,120,136,130,120,122,121,121,131,132,113,126,120,121,120,124,123,111,119,139,122,131,122,122,121,121,132,108,120,106,122,124,124,122,120,136,115,124,120,123,122,120,131,119,121,120,120,121,122,118,116,117,123,128,122,121,118,123,119,123,114,116,119,117,101,114,106,82,122,124,121,125,130,123,122,126,120,123,121,119,111,124,147,132
125,118,121,126,130,121,105,108,116,123,122,120,121,124,117,109,121,123,122,124,130,118,123,113,117,123,120,122,117,121,123,120,115,115,121,120,118,115,117,120,123,127,122,126,121,116,125,112,122,118,121,121,115,117,117,134,119,127,122,121,119,119,121,111,121,119,121,121,118,118,119,115,113,115,119,117,111,112,109,98,133,126,123,126,124,118,116,120,122,125,121,121,121,130,151,169,119,117,118,116,114,115,112,104,122,122,122,123,124,120,119,115,119,116,118,121,121,122,114,110,126,120,120,117,115,117,122,144
118,122,117,120,117,118,128,117,118,129,122,122,119,114,109,111,122,119,123,118,110,119,134,114,118,123,123,128,136,122,123,107,120,116,121,122,106,112,111,115,119,128,120,119,121,126,121,99,119,120,122,120,120,125,113,143,126,119,122,122,111,117,124,117,111,121,120,121,118,113,121,92,127,124,120,123,129,122,119,141,116,122,119,121,120,122,125,89,132,118,120,121,121,124,136,148,122,122,123,120,118,124,131,131,122,118,123,121,116,114,116,117,110,118,118,121,120,113,112,101,137,121,120,119,118,135,153,166
120,127,121,123,141,123,131,125,119,122,123,120,110,117,122,116,120,130,119,122,125,123,119,119,119,108,118,121,125,121,120,120,115,122,119,121,129,125,123,110,124,124,122,123,116,119,119,120,121,124,120,122,116,121,114,103,116,118,123,124,125,123,128,122,132,124,118,119,119,120,115,147,119,122,119,117,106,123,111,122,116,122,120,122,117,114,123,119,125,121,122,120,120,119,116,113,121,111,120,120,121,123,129,130,120,128,122,122,121,116,123,123,117,116,120,119,113,119,129,119,112,114,117,117,116,121,131,107
122,127,119,121,121,121,128,126,137,122,124,121,118,121,121,120,123,124,119,122,116,117,124,110,119,119,122,130,139,121,140,134,114,122,118,124,118,119,114,90,121,121,123,121,119,118,123,142,127,124,123,122,123,132,123,128,118,125,120,117,107,115,112,113,118,116,118,117,119,125,116,114,123,121,122,122,120,119,121,117,116,119,122,124,121,119,128,106,131,114,121,120,121,121,122,144,112,116,117,120,121,112,111,103,115,131,122,122,123,123,112,116,128,121,122,121,116,123,141,157,117,116,118,121,120,124,115,102
130,126,121,121,119,121,121,119,116,121,124,127,143,130,116,116,119,125,120,124,132,125,114,120,122,122,122,123,121,121,135,136,134,124,121,122,123,126,136,133,128,112,118,114,101,113,118,103,110,118,122,124,119,120,104,98,123,124,121,122,121,119,128,121,118,128,123,123,117,117,128,123,117,112,121,121,118,117,101,112,119,119,120,117,118,123,136,133,118,129,121,117,107,112,110,89,122,114,120,121,120,121,116,121,110,120,120,118,117,118,131,109,133,131,123,127,136,122,127,147,120,129,122,119,119,126,123,115
114,103,119,121,115,114,123,130,124,123,119,119,118,118,116,111,113,123,122,120,119,118,114,115,119,121,121,123,119,123,102,95,119,118,119,119,119,117,120,113,130,126,121,124,128,121,122,124,113,115,118,116,108,123,126,116,118,124,122,121,113,121,130,119,120,123,121,126,133,118,117,106,117,115,119,118,114,122,111,97,117,113,121,122,116,130,115,120,117,129,121,119,116,123,115,110,115,118,120,120,126,119,114,105,136,126,121,130,134,121,139,161,122,114,122,119,117,130,123,123,116,139,119,120,119,119,117,106
119,104,119,122,120,123,130,128,115,117,118,118,120,119,124,123,122,129,124,123,100,113,135,140,121,130,123,119,116,120,123,110,132,130,122,126,122,125,121,123,123,113,121,123,118,114,125,124,103,118,120,115,113,126,121,105,116,116,119,121,116,114,120,121,128,144,121,120,119,120,117,120,115,106,120,122,122,123,126,119,125,124,119,125,141,125,113,129,122,125,124,119,114,123,122,124,118,117,118,121,121,121,119,120,116,124,122,123,125,117,122,102,129,117,122,123,123,125,141,140,124,122,123,125,133,122,113,122
119,129,121,121,117,117,119,117,109,112,118,119,116,116,113,111,129,120,120,121,122,123,125,105,124,123,123,123,124,122,127,136,118,128,123,126,136,121,122,121,118,117,120,123,121,119,126,120,120,119,119,121,118,116,104,102,125,117,122,123,124,130,149,144,129,129,122,123,131,122,139,144,114,119,121,124,124,112,112,111,119,126,121,121,135,123,126,111,130,120,123,126,123,121,134,132,117,134,120,118,107,119,126,102,123,112,121,124,134,120,119,119,113,126,120,121,121,119,122,113,119,119,120,122,124,119,123,124
126,123,121,120,121,121,114,114,116,126,121,121,122,120,120,114,116,112,121,122,121,119,111,115,126,126,122,122,121,129,147,126,122,126,124,120,116,123,134,110,121,116,120,124,127,119,123,125,119,124,120,119,120,120,114,119,126,123,123,123,119,118,109,105,126,118,122,135,142,131,130,146,105,122,121,121,126,125,111,95,120,124,119,117,114,125,111,114,122,117,120,118,112,114,111,114,127,125,120,124,126,122,119,128,118,117,118,119,119,137,114,112,116,113,122,122,120,117,104,107,121,123,119,115,98,117,118,110
115,125,120,120,124,119,95,81,126,126,125,124,117,128,168,197,138,119,120,122,121,119,112,109,113,114,118,117,119,117,126,115,119,124,121,120,117,119,115,119,114,125,123,124,120,127,87,98,126,111,121,121,121,127,149,151,118,117,119,121,121,121,127,123,123,122,122,123,122,121,123,115,127,119,120,115,103,117,126,151,114,129,125,123,123,130,119,128,127,120,119,122,123,126,98,102,124,127,122,123,120,117,128,127,116,116,123,129,148,125,114,115,118,127,121,126,125,113,115,102,125,122,122,121,121,126,133,144
130,119,120,121,120,116,115,120,116,119,121,125,122,120,122,113,126,127,123,128,135,118,120,123,119,126,120,123,121,119,116,111,133,104,120,121,122,129,135,133,113,133,121,118,112,125,125,117,117,119,122,117,104,116,114,115,121,122,122,125,122,118,114,107,120,119,115,117,120,126,118,124,122,118,122,121,131,126,106,97,126,130,125,133,145,132,129,124,121,125,123,122,116,116,124,120,129,125,122,121,119,124,131,142,121,110,117,119,118,122,127,115,116,126,119,114,108,123,105,122,114,125,121,123,128,121,108,101
127,124,123,122,119,136,127,167,130,122,121,118,123,118,117,98,120,119,120,126,121,116,120,136,116,125,119,117,119,124,133,116,120,116,121,119,116,119,117,126,121,124,120,121,121,119,139,107,119,121,121,117,109,122,122,124,114,118,121,120,121,134,103,118,135,119,119,121,116,121,118,116,107,112,119,118,113,118,116,111,124,137,124,124,128,132,130,119,115,110,119,115,111,116,122,116,118,119,121,122,122,118,127,120,120,134,123,122,124,124,106,104,134,116,123,122,114,122,142,150,114,125,123,128,145,120,123,120
120,125,121,121,116,116,134,118,124,119,121,121,118,116,126,117,120,120,122,123,122,119,127,145,121,120,121,125,126,127,123,117,121,121,121,121,117,116,118,114,121,120,122,122,115,118,126,122,119,120,118,121,122,119,126,128,120,120,123,124,124,116,103,117,123,125,123,124,120,127,122,110,125,125,122,122,122,130,112,133,111,122,122,120,118,118,105,112,127,125,118,121,115,119,116,113,119,109,122,123,139,133,118,125,115,129,120,121,123,124,121,126,125,130,122,121,118,118,117,113,116,117,120,118,112,119,121,102
114,122,117,117,115,129,96,109,111,116,121,121,121,118,136,110,119,124,121,122,120,125,117,125,127,125,121,121,120,124,115,119,114,120,120,119,111,117,139,132,118,121,119,117,105,115,121,120,120,124,120,121,117,118,117,119,120,120,122,121,119,111,147,116,129,124,124,126,118,119,113,116,120,124,117,119,115,117,123,136,115,119,120,118,127,124,116,120,123,127,121,122,121,120,120,107,112,126,124,123,123,120,120,117,128,118,119,121,122,122,134,122,134,125,125,133,148,126,127,139,112,142,119,123,121,122,116,127
121,128,120,119,118,119,121,118,111,103,120,122,114,120,95,93,115,129,124,127,139,143,123,129,122,118,120,118,96,104,129,126,127,127,120,121,125,125,127,132,124,127,121,122,118,119,124,129,105,115,122,117,103,116,114,78,120,120,117,112,80,105,115,110,123,127,121,122,125,124,122,126,113,121,123,123,126,136,140,120,140,146,126,126,123,112,131,131,112,92,117,120,117,116,123,122,113,119,116,117,116,119,122,117,116,124,123,122,121,120,138,140,116,124,122,123,122,120,100,76,134,124,121,123,138,127,133,137
112,117,121,122,126,116,110,117,128,124,120,123,118,117,107,103,123,127,125,125,125,125,162,157,121,125,121,124,133,116,120,132,120,117,120,121,117,123,136,120,115,120,121,122,121,119,118,116,124,119,119,119,120,131,94,114,119,126,123,123,117,127,138,117,117,120,120,126,141,123,113,111,115,120,120,122,121,122,119,112,119,122,119,118,113,117,116,116,127,120,123,131,126,115,138,139,125,134,122,121,118,117,117,120,116,114,118,120,122,126,104,114,121,124,120,120,118,120,104,107,117,123,120,123,124,124,127,127
126,119,120,119,119,124,127,139,121,121,120,123,117,123,134,136,116,144,121,120,124,135,102,110,127,93,120,124,127,124,114,120,114,130,119,119,122,124,135,116,126,122,123,124,127,131,152,188,122,129,123,120,115,119,115,119,131,135,121,122,122,123,127,134,107,105,120,122,115,112,115,96,119,125,121,115,105,121,132,118,116,120,119,121,121,122,128,111,125,120,121,120,119,120,103,121,118,107,117,120,118,118,124,112,111,121,120,124,124,121,125,125,125,128,125,124,129,126,114,112,121,121,123,122,126,123,126,116
125,127,121,126,122,117,116,112,121,117,121,123,122,124,161,140,119,129,122,117,98,115,115,111,124,121,123,122,121,119,118,114,113,123,121,122,126,118,110,118,124,122,121,119,116,117,114,118,110,119,120,121,111,115,121,91,126,125,120,121,123,121,111,120,114,121,121,122,120,124,111,121,132,117,119,121,120,119,128,152,111,124,123,129,130,125,127,118,116,123,119,121,116,119,126,115,122,123,119,121,119,119,120,125,111,122,121,120,119,118,115,88,131,127,121,114,98,130,129,159,118,124,123,125,129,117,116,104
122,114,120,119,107,115,121,117,124,130,120,122,119,119,133,114,121,122,120,117,108,122,118,120,125,123,121,119,108,113,117,116,122,126,123,128,138,125,127,129,114,115,118,119,114,122,115,131,114,126,122,124,121,117,112,104,133,113,122,121,116,123,120,145,108,115,115,120,116,115,116,107,119,120,120,116,108,115,111,121,118,140,124,124,125,125,117,104,127,112,122,120,118,128,121,137,114,128,121,123,127,121,129,113,122,118,119,124,131,125,133,118,126,118,121,120,122,126,110,110,127,119,119,121,121,120,128,176
113,124,121,120,115,118,120,99,115,127,120,124,133,122,116,119,120,114,119,117,122,122,122,132,116,119,120,118,111,125,113,104,129,121,123,126,122,124,126,149,119,117,119,120,116,117,115,113,117,122,123,122,124,118,122,120,122,124,121,124,136,133,118,133,135,137,125,119,104,119,126,119,113,111,119,121,124,122,124,125,126,122,118,121,115,117,124,116,118,119,119,120,120,120,122,121,123,127,123,123,123,120,129,130,118,121,122,122,116,117,114,104,118,121,120,121,120,119,115,110,120,117,122,123,123,121,108,119
114,122,122,124,123,117,119,126,114,123,119,118,116,124,124,105,136,110,121,122,125,128,121,152,117,132,122,121,121,116,115,118,119,114,120,120,119,119,112,123,106,123,121,127,131,117,108,102,123,117,123,124,124,125,124,114,124,122,122,121,118,124,129,135,113,124,121,121,119,119,87,100,119,128,122,125,144,124,125,106,132,121,121,126,118,121,132,133,113,119,118,117,110,116,124,134,117,112,119,127,137,118,117,110,118,125,123,123,109,115,110,107,134,130,123,120,123,123,127,141,107,117,122,126,123,120,116,122
135,115,120,121,118,120,137,134,117,122,120,121,113,119,120,116,117,130,122,120,116,121,114,124,116,121,122,124,120,120,121,124,130,119,119,118,115,121,125,121,118,130,120,118,110,119,123,119,113,116,123,131,154,124,130,113,126,127,122,123,118,121,122,125,129,128,121,119,121,118,142,145,121,102,121,127,137,124,124,141,112,129,119,121,112,111,127,113,106,122,121,121,122,120,111,92,141,130,122,125,123,132,152,180,129,135,126,122,119,122,126,98,118,121,121,116,107,114,117,120,121,120,120,120,121,114,109,122
117,112,119,121,121,122,131,122,143,117,120,121,122,124,119,149,116,127,123,124,124,126,112,116,118,135,124,122,119,119,117,119,112,107,121,123,126,119,103,105,127,121,119,120,118,121,152,140,119,118,120,119,115,119,117,111,120,121,121,118,126,117,123,118,123,123,120,119,99,116,120,119,121,135,120,124,122,120,115,114,126,108,121,121,123,125,123,119,115,115,116,123,129,117,121,110,124,125,123,124,125,121,125,128,119,124,121,122,121,122,119,110,121,130,125,123,119,122,130,147,135,115,119,121,129,123,129,123
114,112,117,119,112,123,114,121,118,124,120,126,139,121,104,111,113,130,123,122,120,120,122,101,124,118,123,121,121,122,109,107,132,117,117,119,118,117,121,132,121,123,123,135,161,121,119,120,113,123,124,130,138,129,124,116,127,126,121,124,128,128,123,145,133,114,123,121,118,119,109,111,109,120,120,123,124,117,141,103,126,125,121,126,136,128,146,178,118,113,122,122,123,120,125,119,120,123,121,121,121,120,113,109,126,114,120,123,121,124,126,113,118,127,121,120,116,117,118,112,120,124,124,126,147,129,131,126
130,117,119,120,131,120,123,124,101,121,117,122,119,117,127,109,131,120,122,122,124,132,107,115,129,117,121,120,115,119,127,126,114,125,121,126,143,124,126,122,126,125,122,122,119,119,124,136,114,114,120,121,119,119,119,103,131,120,121,122,122,120,128,158,116,118,121,124,129,125,138,112,119,134,120,116,101,112,118,111,111,110,120,122,121,114,113,106,135,111,117,120,113,112,99,130,105,109,120,124,140,122,123,102,122,129,120,115,97,115,115,134,118,121,121,120,131,121,115,101,128,121,124,124,123,121,137,151
114,127,125,123,124,123,120,100,120,113,120,121,122,118,123,113,126,125,119,121,121,118,129,122,120,122,121,121,122,126,114,118,119,121,121,121,121,120,124,116,124,124,122,114,96,118,117,116,117,125,119,124,124,119,117,117,102,128,120,119,118,127,106,92,144,119,124,125,141,133,148,186,108,120,120,126,121,117,110,92,119,130,123,126,132,127,115,131,118,117,125,126,127,118,122,118,123,119,118,121,122,118,129,132,105,116,118,112,100,117,106,83,132,126,122,114,93,122,134,163,119,122,121,123,134,126,105,108
119,120,120,121,117,119,119,120,125,128,123,124,125,127,137,121,111,113,121,121,118,121,101,101,128,127,121,123,128,125,107,141,123,111,117,122,128,123,111,96,118,142,124,122,120,118,135,125,123,114,125,133,156,142,123,139,119,127,119,123,124,119,122,107,116,111,120,120,119,118,115,116,138,111,115,114,117,118,115,126,111,134,128,137,134,131,133,125,125,124,123,118,115,120,125,127,114,119,120,123,118,119,110,103,119,121,122,121,121,123,139,156,114,117,121,127,147,121,113,114,124,122,116,113,109,133,95,111
115,114,123,124,122,118,110,95,133,132,122,123,123,129,140,170,110,116,123,124,124,126,125,118,121,125,126,140,170,130,115,106,135,122,119,118,116,127,118,130,121,113,121,122,122,127,99,88,126,122,117,119,117,109,127,155,105,109,118,120,116,118,112,89,121,128,122,113,81,116,128,115,119,113,120,123,116,117,140,133,119,123,121,122,123,119,90,84,122,123,125,124,129,131,170,157,116,126,118,115,106,123,104,111,121,114,119,121,115,114,124,110,114,115,120,122,119,110,103,87,137,120,120,125,136,122,135,168
113,117,118,119,108,108,113,115,122,124,121,120,127,120,121,117,121,125,122,121,121,120,123,119,123,120,120,121,120,119,115,119,120,118,120,120,121,123,128,117,111,118,121,121,119,125,110,119,123,121,120,119,113,116,121,131,115,120,119,119,120,116,129,103,122,118,120,116,117,124,111,134,114,123,123,121,126,116,143,107,121,132,123,121,115,114,112,132,134,120,119,121,122,124,120,122,118,116,120,124,128,117,117,116,118,124,126,128,143,126,131,109,126,138,129,147,173,120,130,110,116,118,122,121,117,119,113,112
127,114,118,119,117,118,117,115,109,126,122,122,122,122,121,102,134,113,120,121,121,120,126,174,112,124,122,123,123,122,125,105,120,127,120,122,120,117,118,116,126,106,121,122,127,120,110,111,117,130,119,117,89,116,127,132,121,119,119,123,123,116,121,131,105,119,121,119,112,117,116,115,131,128,121,123,121,120,128,118,122,123,121,121,122,120,105,126,112,130,123,125,140,124,135,102,120,111,123,123,114,123,127,117,117,123,121,126,127,116,114,111,129,117,123,120,120,129,151,145,120,129,124,129,140,135,119,141
126,121,120,121,118,117,129,128,116,124,122,120,120,118,118,103,121,123,121,122,126,123,136,135,124,120,120,122,129,120,116,105,118,126,122,128,129,128,123,142,123,117,123,123,124,121,122,113,115,130,122,120,115,115,114,110,128,119,123,124,121,121,122,122,122,107,119,124,126,122,123,116,130,122,120,124,146,127,119,124,113,122,120,124,122,123,113,119,123,128,123,124,126,126,123,120,117,118,121,122,122,118,116,106,122,120,118,120,127,120,127,111,107,121,123,122,126,123,110,86,113,125,120,121,120,120,139,116
141,128,124,124,127,129,149,145,100,122,124,129,131,123,114,82,117,117,121,120,117,118,117,115,120,124,120,116,97,119,127,116,118,121,121,117,104,121,124,107,127,139,121,125,124,121,121,128,120,111,120,120,122,120,114,119,117,121,119,121,122,119,122,129,122,122,122,122,117,120,120,117,113,124,120,124,130,122,139,105,113,115,119,123,126,117,124,120,129,120,122,122,119,123,120,125,119,125,122,122,118,119,131,117,113,131,124,128,133,120,113,112,124,123,124,130,120,121,135,120,124,131,123,122,120,116,115,123
118,118,123,125,121,114,120,113,120,121,115,118,116,121,106,118,121,123,123,121,127,124,162,147,117,113,121,121,119,122,114,105,117,119,119,121,120,121,120,116,122,123,122,122,122,121,124,123,127,125,123,130,147,127,115,95,123,125,117,109,86,115,126,161,113,118,121,124,120,116,125,114,129,116,121,121,119,118,113,114,112,122,121,122,119,115,111,106,124,126,123,122,119,121,122,124,115,122,121,121,120,126,116,106,124,115,120,124,122,123,117,128,117,116,116,118,116,118,125,129,123,128,124,123,121,121,121,120
122,127,125,131,150,121,122,116,129,113,118,117,111,123,122,125,119,126,119,120,119,122,123,120,127,118,124,128,123,132,131,131,119,123,121,119,118,121,118,113,117,126,121,115,103,118,127,141,132,127,121,120,118,128,124,157,122,115,120,122,123,123,133,118,121,119,120,121,121,118,118,123,115,120,119,119,117,119,98,86,131,143,127,124,124,124,147,182,117,112,119,121,122,117,116,100,111,110,113,118,117,117,114,115,120,122,121,117,108,116,132,123,115,123,124,125,123,121,127,114,119,132,125,124,113,116,121,107
129,118,120,119,123,124,97,124,114,119,117,120,118,117,114,109,122,112,123,123,120,120,123,114,119,127,121,123,124,117,109,118,119,126,122,122,123,131,114,110,126,119,121,124,115,122,122,114,119,122,123,121,115,116,123,110,129,121,121,124,123,129,126,127,112,118,117,120,120,118,125,115,120,124,120,120,119,120,122,107,121,125,120,121,131,122,127,131,113,117,119,121,119,120,95,91,128,115,117,119,121,118,122,126,121,124,122,123,123,128,118,94,125,125,126,137,167,133,117,129,121,118,120,121,123,131,135,125
109,123,120,120,120,118,123,109,130,119,123,122,123,129,137,122,127,120,122,119,119,121,115,122,115,123,117,116,123,109,111,112,115,110,120,124,121,126,118,116,129,122,123,122,123,132,98,115,127,124,120,121,119,118,137,110,117,122,120,122,123,117,110,119,108,122,121,123,124,119,111,108,125,119,121,122,120,118,113,119,110,119,121,123,124,121,121,93,126,126,122,124,125,123,123,134,121,123,122,122,124,116,120,116,128,121,122,126,136,124,127,127,114,113,119,118,108,121,110,98,104,119,118,120,129,120,101,74
125,119,119,111,95,123,135,137,121,133,122,125,130,120,116,116,118,106,124,129,135,125,114,106,126,121,119,117,112,115,129,111,120,119,120,121,130,138,139,160,114,126,123,123,128,126,105,99,121,126,121,119,127,115,112,111,121,118,120,123,119,129,111,121,140,118,118,119,113,120,141,123,113,118,120,119,119,115,122,114,123,126,123,122,116,118,130,125,117,126,122,122,121,124,131,115,144,118,118,123,123,134,107,136,107,123,124,127,129,125,126,114,118,111,116,120,119,119,107,121,124,124,123,125,122,122,125,131
119,125,122,120,118,120,120,115,122,121,121,123,130,123,111,114,118,130,121,124,126,118,123,118,126,116,120,122,127,119,124,128,122,117,119,120,119,119,104,102,118,125,120,120,119,120,125,129,115,121,122,120,121,121,120,114,119,129,122,124,118,114,112,108,118,110,117,119,124,125,137,112,108,119,120,116,105,114,112,112,119,115,121,119,99,119,104,102,136,136,121,122,126,126,148,157,119,127,121,126,132,116,109,115,129,112,118,116,101,124,127,163,113,117,120,120,109,114,125,115,124,124,122,122,120,117,111,114
124,126,123,126,120,119,114,125,121,124,122,121,114,123,136,138,126,126,122,124,140,129,113,112,119,117,120,121,118,118,120,114,126,124,119,118,124,119,117,110,117,111,121,123,122,123,131,145,115,124,121,121,113,121,122,103,138,120,121,118,107,118,125,133,123,129,121,124,129,121,125,120,122,126,122,122,116,127,119,130,108,109,116,119,118,116,105,90,133,121,120,119,111,120,103,141,118,125,122,120,115,111,107,113,119,126,121,125,127,117,129,128,113,118,118,119,120,121,119,107,123,119,121,122,118,114,126,104
122,127,123,123,122,136,117,140,123,126,120,121,120,118,135,120,124,123,120,121,121,120,122,120,120,121,120,122,122,119,113,92,107,114,121,123,131,121,141,128,141,126,122,121,115,121,134,162,108,127,121,121,121,118,121,113,129,112,122,123,124,127,136,130,127,121,119,120,120,119,107,119,111,117,121,121,118,132,126,104,109,128,122,121,115,117,128,118,125,112,123,122,120,121,134,134,116,124,119,120,118,114,123,116,121,116,120,121,121,119,111,116,123,123,123,126,109,123,115,126,113,122,118,115,126,118,112,101
