119,119,119,119,119,121,132,118,121,123,122,122,120,121,120,121,122,122,121,123,122,121,111,120,120,121,120,121,122,122,124,123,119,120,120,120,120,122,131,118,121,122,121,123,121,121,119,120,122,123,122,123,122,120,110,122,119,121,121,121,121,121,123,119,118,120,121,120,120,122,131,117,121,122,122,123,122,121,120,121,120,122,121,124,123,121,109,119,120,121,121,122,121,121,122,121,119,121,121,120,120,121,132,118,121,122,122,123,121,121,120,119,120,122,121,123,122,121,111,122,119,119,120,121,121,121,120,117
119,119,120,120,120,122,133,120,121,123,122,123,122,121,120,121,121,123,122,123,122,120,110,122,120,121,120,121,121,121,122,120,119,120,120,120,120,122,132,119,121,122,121,122,121,121,120,119,123,123,121,123,122,121,112,127,119,120,120,122,121,121,121,117,120,120,120,119,119,118,135,124,121,122,120,122,121,122,119,119,121,123,122,124,123,121,110,121,119,120,121,121,121,120,120,118,119,119,120,120,121,124,135,122,121,123,122,122,121,121,118,120,122,123,121,123,122,120,110,121,119,119,120,121,121,120,121,119
120,119,119,119,119,121,133,119,121,123,122,122,121,121,120,121,126,124,121,123,122,120,110,122,117,121,121,121,120,120,122,118,119,119,120,120,120,122,132,118,122,122,121,122,122,120,118,120,123,123,121,123,123,121,111,124,120,121,121,122,121,121,123,118,119,119,120,120,120,122,134,121,121,122,121,121,120,121,119,120,121,122,121,124,123,120,109,120,121,122,121,121,120,121,124,120,120,119,119,120,119,122,134,119,120,122,121,122,122,121,118,120,122,123,121,123,123,120,110,123,120,120,120,121,121,122,123,120
119,120,121,120,119,122,133,119,122,122,121,121,121,121,120,121,122,123,122,124,123,120,109,122,120,121,120,120,121,121,123,120,119,119,120,120,120,122,135,119,121,122,121,122,121,121,119,120,122,122,122,124,122,120,109,123,120,121,120,121,120,120,122,119,120,121,121,121,120,122,133,117,121,122,122,122,122,122,121,122,122,123,121,122,122,120,109,120,119,120,121,122,121,120,122,118,119,119,120,120,120,121,132,118,122,122,121,122,121,121,120,120,122,123,122,124,123,120,106,122,119,120,119,121,120,121,123,119
119,119,120,120,120,123,137,118,121,123,122,122,121,120,119,121,122,122,121,123,122,121,108,122,119,120,121,122,121,121,124,119,120,121,121,120,119,121,134,119,121,122,121,123,121,121,120,121,121,122,121,123,122,120,108,119,120,121,121,122,122,121,123,122,120,120,120,119,119,121,135,120,122,122,121,122,121,121,118,121,121,123,122,123,122,120,108,120,119,120,121,122,120,120,122,119,122,120,120,120,120,122,134,119,121,122,122,123,121,120,118,120,122,123,121,123,122,120,108,123,120,121,121,122,120,120,124,119
117,120,120,119,119,121,134,118,122,121,121,122,122,121,118,120,123,123,121,123,123,121,109,126,119,120,121,121,121,120,120,116,121,121,121,120,119,122,140,120,122,123,121,121,121,121,118,122,121,122,121,124,123,121,108,120,119,120,121,121,121,121,121,119,120,120,120,119,119,121,135,119,121,122,121,123,122,124,120,121,120,123,122,123,122,121,109,121,121,121,121,122,122,121,125,119,119,119,119,119,119,122,135,120,121,122,122,122,121,121,118,119,122,122,121,124,123,121,106,123,120,120,120,121,121,122,126,121
120,119,120,120,120,121,134,120,119,121,120,121,121,120,117,118,120,123,121,123,123,121,108,121,120,121,121,121,121,121,126,120,120,120,120,120,120,123,135,118,121,122,122,122,120,120,118,120,121,123,122,124,123,120,107,121,119,120,120,121,121,121,124,121,118,119,120,120,120,122,135,117,121,123,122,122,121,121,118,121,122,122,121,124,123,120,108,120,120,121,120,121,121,121,126,124,117,119,120,120,120,121,133,116,121,123,122,123,121,121,117,122,122,123,122,124,123,120,107,121,121,122,120,121,121,121,124,121
119,120,121,120,120,123,137,119,121,122,121,122,121,121,118,120,121,123,121,123,122,119,107,122,120,121,121,121,121,121,125,120,120,121,120,119,119,122,133,119,121,122,121,123,122,120,118,121,121,122,121,123,123,120,108,121,118,120,120,121,121,121,125,119,120,120,121,120,120,122,135,118,122,123,121,122,122,121,119,123,120,123,120,123,122,119,105,120,123,120,120,121,121,122,128,125,118,120,120,120,120,122,136,118,121,122,121,122,122,121,116,119,122,124,122,123,122,120,109,122,119,121,121,122,122,121,124,119
119,120,121,120,120,121,135,118,121,122,122,122,122,121,118,122,122,123,122,124,124,120,107,122,120,120,120,121,121,120,123,119,119,120,120,119,120,123,136,119,122,123,122,123,122,120,117,120,121,122,122,123,122,120,108,121,119,120,121,121,121,121,124,118,119,119,120,119,119,122,136,119,124,121,121,122,121,121,118,121,119,123,121,123,123,121,107,122,121,121,121,122,121,121,124,119,118,119,119,119,119,122,136,118,123,122,122,123,121,120,119,121,121,123,122,124,123,120,106,121,119,121,121,121,121,121,124,118
120,120,121,120,120,122,135,120,121,122,121,123,122,121,117,120,121,123,122,124,122,119,104,121,120,121,121,122,121,121,124,119,120,121,120,119,119,122,136,120,121,122,122,123,122,121,117,120,121,124,122,124,123,120,107,122,120,121,121,122,121,120,124,120,121,120,120,119,119,122,136,120,121,122,121,123,121,120,118,121,122,122,121,123,122,120,108,121,120,120,121,122,122,121,122,119,119,120,121,120,120,123,135,117,122,122,122,123,122,120,117,121,120,123,122,124,123,119,107,121,119,119,120,121,121,121,125,118
119,120,120,120,119,122,137,119,122,121,120,122,121,120,117,120,122,131,127,124,123,120,106,123,119,119,120,122,121,121,124,118,119,119,120,120,120,122,136,120,122,123,119,122,121,121,118,120,122,118,119,123,123,120,105,121,119,123,120,121,121,121,125,119,118,120,121,120,120,121,136,119,120,122,121,123,122,121,117,119,122,122,121,124,123,120,105,120,120,121,121,121,120,121,124,118,120,121,121,120,120,123,140,122,121,123,121,122,121,121,118,120,121,123,122,124,123,119,102,119,119,121,121,120,120,120,125,120
119,120,120,120,120,122,135,117,121,123,121,123,121,120,117,121,125,122,121,123,123,120,106,122,116,121,120,121,121,122,126,120,121,119,120,120,120,122,136,118,121,122,122,123,121,120,117,120,121,123,121,123,122,120,106,121,120,120,120,121,121,122,126,121,118,119,120,120,119,122,135,117,122,123,122,122,121,121,118,121,120,122,121,124,123,119,104,120,120,122,121,120,120,121,125,120,120,121,120,120,120,122,137,119,122,124,123,124,122,121,118,122,119,121,121,124,123,120,106,121,120,121,120,120,120,120,125,119
120,121,121,121,120,122,135,118,122,122,121,123,121,121,118,122,121,123,120,124,123,120,106,121,122,121,121,120,120,121,126,120,117,120,120,120,119,123,137,118,122,122,122,122,121,120,114,117,120,123,122,124,123,120,108,124,118,119,119,121,120,121,124,117,120,119,119,120,119,121,136,120,121,122,122,123,122,120,116,120,121,123,122,124,123,120,107,120,120,120,120,121,121,121,126,121,119,120,120,119,119,122,137,119,121,122,121,122,122,121,117,119,122,123,122,123,122,119,106,122,121,121,121,121,120,122,127,122
119,120,121,120,120,122,136,117,120,122,121,122,122,121,117,120,121,123,122,124,122,119,104,120,121,121,121,122,121,122,126,121,119,120,121,120,119,121,137,118,121,122,122,123,121,121,120,122,122,123,122,123,122,119,105,121,120,120,120,121,121,121,125,120,120,121,121,120,119,122,136,120,121,122,121,122,122,121,117,121,121,122,121,123,123,121,107,121,120,120,121,121,121,121,121,119,118,119,120,120,120,122,137,118,122,121,121,122,122,122,117,119,120,123,121,124,122,119,104,120,121,122,121,121,120,122,126,120
120,120,120,120,119,123,138,120,120,122,122,123,122,121,116,120,124,123,121,123,122,119,109,121,119,121,121,121,120,121,125,125,121,122,122,120,120,123,139,120,122,122,121,122,121,120,120,125,121,124,122,124,122,120,107,121,120,121,120,120,121,121,124,119,118,119,120,120,120,121,134,117,122,123,122,123,122,121,118,123,121,123,120,123,122,119,107,121,120,121,120,121,121,121,126,120,120,120,121,120,119,122,134,118,120,122,121,122,121,120,117,120,122,123,121,123,123,120,109,121,120,121,121,121,121,122,125,120
117,120,121,120,120,122,135,118,123,123,122,123,122,121,119,124,122,123,121,124,123,119,106,123,119,120,121,121,121,120,125,118,119,119,120,120,120,123,136,119,120,122,121,123,122,119,117,120,121,123,121,124,122,119,106,120,118,119,120,121,120,120,125,119,120,120,121,121,120,124,133,118,121,122,121,123,122,121,115,119,121,122,122,124,122,119,107,122,120,121,120,121,121,121,125,120,120,121,120,120,120,122,136,120,121,122,121,122,121,120,118,121,121,122,122,124,123,121,106,121,121,121,121,122,121,120,123,119
119,121,121,120,119,121,135,118,123,122,121,122,122,121,119,124,119,123,121,124,123,121,107,120,121,120,120,121,120,121,126,120,118,120,121,120,120,121,134,117,121,122,121,121,121,121,118,121,123,124,122,125,123,121,107,122,120,121,120,121,120,122,125,120,119,119,120,120,120,123,137,119,119,122,122,123,122,121,117,121,122,123,120,123,122,120,107,120,122,122,121,122,121,122,128,121,119,120,120,119,119,120,134,118,120,123,122,122,120,120,116,116,120,123,122,123,122,119,105,120,119,119,120,121,120,120,124,117
120,121,121,119,119,122,135,116,123,122,121,122,121,121,117,122,122,121,121,124,123,120,106,122,120,121,120,122,121,121,125,120,120,121,121,120,120,122,135,119,120,122,121,123,122,121,116,119,120,122,121,123,122,119,106,120,120,121,120,121,121,121,127,121,121,121,121,120,119,122,136,118,120,121,119,121,121,120,116,120,120,122,122,124,123,119,105,120,120,122,121,122,121,121,126,119,123,121,121,120,120,122,137,120,119,123,121,122,121,121,117,121,120,121,121,123,123,120,105,121,121,120,119,120,120,121,127,118
119,120,121,120,120,122,136,117,121,123,122,122,121,121,119,123,122,123,120,123,122,120,108,124,120,121,121,121,121,121,120,119,118,119,120,120,120,123,138,118,122,123,121,123,121,120,116,121,121,122,122,124,122,119,106,120,118,119,120,121,121,121,125,117,120,121,121,121,121,122,136,121,122,123,121,122,122,121,118,122,122,122,121,124,122,120,106,121,120,121,120,121,121,123,126,119,120,121,121,121,120,118,136,119,120,123,121,122,122,121,117,120,121,122,121,123,123,122,109,125,119,120,121,121,121,121,126,119
119,120,121,120,120,123,138,121,120,121,121,122,121,121,118,122,122,122,121,123,122,120,105,121,120,121,121,121,120,121,127,120,120,121,121,121,120,122,136,119,121,123,122,123,122,121,116,122,121,123,122,124,122,119,105,121,121,120,121,122,120,121,126,121,120,120,120,120,120,122,136,119,120,123,122,123,121,119,115,120,121,123,122,124,123,120,106,121,120,121,121,121,120,121,131,121,120,119,120,119,119,122,133,119,121,122,122,122,121,120,117,121,121,121,121,123,123,119,104,121,119,120,120,121,121,122,130,120
121,121,121,120,120,123,135,119,121,123,121,122,121,120,115,120,122,122,120,123,123,119,105,121,118,121,121,122,120,121,126,119,120,120,121,121,120,123,142,120,121,121,121,123,122,121,117,120,121,122,121,124,123,120,104,120,119,120,120,121,121,121,124,118,119,120,121,120,120,124,143,119,121,122,121,122,121,120,116,120,121,123,121,124,123,120,111,121,119,120,120,121,121,122,126,119,120,121,121,120,120,121,134,119,121,123,122,124,122,122,114,122,120,121,121,123,122,119,102,120,119,120,121,120,120,120,127,119
120,121,121,120,120,122,131,119,120,122,122,123,123,122,124,120,123,123,122,123,122,119,102,120,119,120,121,121,121,121,124,118,119,119,120,119,119,121,132,119,121,123,122,123,122,123,124,122,121,124,122,124,123,119,102,121,121,122,120,118,120,120,126,120,122,119,122,125,119,122,134,119,119,121,120,121,121,120,118,121,121,123,121,123,121,119,105,121,121,123,121,121,121,123,130,121,121,120,120,119,119,121,136,119,121,122,121,122,122,122,119,120,120,122,121,123,123,119,104,121,122,122,121,121,121,122,131,123
118,120,120,120,120,122,135,117,124,122,121,122,121,120,118,123,120,122,121,124,123,120,104,121,121,121,121,121,121,124,137,122,119,120,121,120,120,122,134,118,121,121,121,122,122,121,118,121,121,122,120,123,122,119,99,123,119,121,121,121,120,121,128,118,118,119,120,120,120,122,135,117,123,122,121,122,121,121,119,128,121,123,121,124,122,119,108,120,120,121,121,122,121,122,126,119,118,121,121,120,119,121,136,119,123,122,122,123,121,120,117,121,121,122,121,123,122,119,105,121,120,120,120,121,121,121,129,121
119,120,121,120,120,122,137,120,121,122,121,123,122,121,118,121,120,122,121,124,123,120,107,121,119,120,121,121,121,122,128,119,120,121,121,120,120,121,130,119,120,120,121,123,121,120,114,119,119,121,121,123,123,120,107,120,120,122,122,122,120,120,126,120,120,120,120,119,119,122,136,121,120,122,121,122,122,120,114,118,121,122,121,124,123,120,108,120,119,121,121,122,121,122,128,120,120,120,121,119,119,122,136,120,122,123,121,123,122,121,116,121,120,122,121,123,121,119,105,121,120,121,120,121,121,122,127,119
121,122,121,119,119,121,135,119,121,123,121,123,122,120,114,120,122,122,120,123,123,120,108,122,120,122,121,120,121,122,126,119,121,121,121,120,119,122,138,120,120,122,121,123,122,121,115,121,122,122,121,123,122,120,106,122,119,120,121,122,121,121,124,119,119,120,121,120,119,122,136,121,120,123,121,124,122,121,116,119,122,123,122,123,122,120,114,121,120,121,120,121,120,121,130,120,120,120,120,120,119,122,137,118,121,123,122,123,122,122,116,121,121,121,120,123,122,120,105,121,118,119,120,121,121,121,131,119
119,120,121,121,120,122,136,119,120,122,121,122,122,121,116,120,121,122,121,123,123,120,107,121,121,121,120,121,121,122,127,121,120,121,121,121,120,122,136,119,121,122,122,123,121,120,115,123,119,120,121,123,123,120,107,120,121,121,120,121,121,121,127,120,120,120,121,120,119,121,135,119,121,123,122,123,122,121,116,121,121,122,122,124,122,119,105,120,119,120,120,121,121,122,126,119,121,122,121,121,120,122,137,121,121,122,120,122,121,120,115,122,119,121,121,123,122,120,107,121,121,120,120,121,121,122,129,121
120,121,121,121,120,122,136,119,121,121,121,123,122,121,111,118,119,121,120,123,123,119,107,122,124,122,121,120,120,122,130,124,119,121,121,120,120,122,137,119,122,122,121,122,121,121,116,121,121,122,121,123,123,119,104,121,119,120,120,121,121,122,128,119,120,121,121,120,120,122,135,120,121,122,121,122,120,120,115,121,121,123,121,124,123,121,108,121,122,121,121,121,121,122,130,124,119,121,121,120,119,122,135,119,121,123,121,123,121,119,114,120,122,121,120,123,122,120,108,121,116,118,119,120,120,121,129,118
122,120,121,121,120,122,135,119,120,123,122,123,122,120,114,120,120,122,121,123,123,120,106,119,121,121,121,121,121,122,128,120,121,121,121,119,119,122,136,120,121,122,121,122,121,121,116,122,121,122,121,123,122,120,108,121,119,122,121,121,121,121,126,118,119,119,120,120,119,122,137,121,122,122,121,123,122,120,113,119,121,122,121,123,123,119,106,120,120,121,121,122,121,122,127,120,120,120,122,121,120,121,133,119,120,122,121,122,121,120,116,120,123,122,121,122,122,120,108,123,117,120,121,121,121,121,128,118
121,120,121,120,120,122,136,121,122,121,121,122,122,122,119,123,121,121,120,123,122,120,110,120,122,121,121,120,121,122,129,121,120,121,122,121,121,122,135,118,121,122,121,122,122,121,117,123,121,123,122,123,122,120,108,122,120,121,121,122,121,121,126,118,119,120,121,120,120,122,135,119,121,123,121,123,122,121,115,120,122,122,120,123,122,120,108,122,118,120,120,120,120,121,126,119,119,120,121,120,120,123,136,120,123,123,121,122,120,120,113,120,120,121,121,123,122,120,108,120,121,121,121,121,120,121,127,121
120,121,120,120,120,122,135,119,122,123,122,122,122,121,117,123,121,122,120,122,122,120,109,121,121,121,120,120,121,121,126,121,120,121,121,121,121,123,134,119,120,122,121,122,121,119,112,119,121,122,121,123,122,120,107,121,119,121,121,122,121,121,126,119,122,122,122,121,120,123,137,122,120,122,121,123,122,121,114,119,120,121,120,122,121,119,107,121,121,121,120,121,121,122,130,122,120,122,121,121,121,122,135,119,121,122,121,123,122,120,114,120,121,120,119,122,121,119,108,121,120,121,120,121,121,122,127,119
121,122,121,121,120,122,137,121,120,122,122,123,122,122,112,121,121,122,120,123,122,119,106,120,119,120,120,121,121,122,127,117,123,121,121,120,120,122,136,121,119,121,121,122,121,120,113,119,121,123,121,122,122,120,105,120,120,120,121,121,121,123,129,119,121,122,122,121,120,123,135,119,120,121,121,122,121,120,114,120,119,121,121,123,121,119,106,120,121,122,122,122,121,122,129,120,121,121,122,121,121,122,133,120,120,121,121,122,122,121,116,121,120,121,120,121,122,120,107,120,120,121,124,127,120,121,128,120
120,121,120,119,120,123,135,119,121,122,121,122,122,121,116,122,118,121,120,123,122,120,108,121,118,120,121,121,121,122,127,118,123,122,121,120,120,122,135,122,120,123,121,122,121,120,115,120,120,122,121,124,123,120,108,121,121,121,121,121,120,121,128,123,120,121,121,120,119,121,134,118,119,121,121,122,121,120,114,119,121,122,121,123,122,120,109,120,121,121,121,121,121,122,128,122,121,121,121,121,120,123,136,120,120,121,120,122,121,121,116,122,122,122,121,123,123,120,106,121,120,121,121,121,122,121,127,119
120,121,121,121,120,122,135,120,120,121,121,123,122,121,115,119,121,121,120,122,122,120,106,122,120,121,121,121,121,122,128,120,120,121,122,121,121,122,133,118,122,123,121,123,122,120,117,121,121,122,121,122,122,119,98,120,120,121,121,121,120,121,129,120,121,122,122,121,120,122,134,120,121,122,121,121,120,120,115,120,121,122,121,122,122,119,107,120,119,121,120,121,121,122,127,118,120,121,121,121,121,123,135,122,120,122,120,122,122,121,114,119,120,122,122,124,123,119,107,120,120,121,121,121,121,121,126,120
121,121,120,121,120,123,134,120,122,122,120,122,122,120,115,122,121,122,120,123,123,121,111,122,120,121,121,121,121,121,126,119,119,120,121,120,120,123,135,121,122,122,122,123,122,120,114,120,121,122,121,123,123,120,110,124,119,120,121,121,121,121,128,118,121,121,121,120,119,121,134,119,123,122,121,123,122,120,113,119,121,122,122,123,122,119,108,124,120,121,120,121,121,122,123,120,121,122,121,120,120,122,132,119,120,121,121,122,120,119,113,118,122,123,122,124,123,121,110,124,120,121,121,121,121,122,128,119
121,121,121,121,121,123,134,119,121,121,121,121,120,119,113,119,118,122,120,122,122,121,112,120,123,121,121,122,121,122,130,125,120,121,121,121,120,122,131,120,120,123,121,122,121,121,117,120,120,121,121,123,123,120,104,119,120,122,121,121,120,121,129,120,120,121,121,120,119,121,134,119,122,123,122,122,121,120,115,122,121,122,122,124,122,120,109,121,121,122,122,122,121,121,127,119,124,120,121,121,120,122,132,120,117,121,120,122,122,121,115,120,122,122,121,123,122,119,109,122,119,121,121,122,120,121,127,119
121,121,121,121,121,122,134,120,121,122,121,123,122,120,114,120,117,122,121,123,121,119,109,120,122,122,121,121,120,121,128,120,121,122,121,120,120,123,134,122,119,121,121,123,122,120,114,119,119,121,121,123,122,120,108,118,119,121,121,121,120,121,127,119,122,122,121,120,120,122,134,121,122,123,121,122,121,121,114,122,119,121,121,123,122,120,109,120,119,120,121,122,121,122,129,120,121,122,122,121,120,122,130,120,120,120,121,122,121,120,116,120,120,121,121,122,122,120,111,120,122,122,120,121,121,122,129,121
119,122,122,121,120,121,132,119,119,121,121,123,121,120,114,121,122,122,121,123,122,119,106,120,119,120,121,121,121,122,130,120,123,121,121,121,120,122,132,119,120,123,122,123,121,120,115,119,120,121,121,123,122,119,108,121,121,122,121,121,120,122,129,120,120,122,121,121,121,122,132,119,121,122,122,123,123,121,116,124,119,120,121,123,122,120,109,120,121,121,122,121,120,121,127,119,121,122,121,121,121,121,132,120,121,121,121,123,121,120,115,121,120,122,121,123,123,120,110,119,120,120,121,121,121,122,129,122
119,121,121,121,120,122,132,118,122,122,121,123,122,120,114,122,118,120,120,122,122,120,111,119,122,120,121,121,120,122,129,120,125,121,121,121,121,122,131,120,118,122,122,122,121,120,115,120,121,122,120,122,122,120,110,120,120,121,121,121,121,122,129,120,121,122,121,121,121,122,133,120,121,121,121,123,122,121,114,120,121,123,121,123,122,120,111,121,120,121,121,122,121,121,127,119,121,121,122,121,121,122,132,120,122,123,121,122,122,121,116,123,121,120,119,122,121,120,111,120,120,121,121,121,121,121,126,119
122,122,122,121,120,122,132,119,121,123,121,122,121,120,115,122,119,121,120,122,122,120,111,119,123,122,121,121,121,123,129,120,121,122,121,120,120,122,133,121,122,123,122,123,123,121,114,123,121,120,120,123,122,119,109,118,117,120,120,120,120,121,128,120,122,122,122,122,121,122,132,120,122,122,122,123,121,120,115,121,120,122,121,123,122,119,110,119,121,121,120,121,121,122,129,121,120,121,120,121,120,122,130,120,121,122,122,122,120,119,115,120,120,122,121,123,122,119,110,120,120,121,121,122,121,122,128,120
120,122,122,121,121,123,131,119,120,121,121,123,122,121,113,120,122,121,120,122,122,120,112,120,119,120,120,121,121,122,128,119,121,122,121,121,121,123,132,119,120,121,120,122,121,120,114,120,120,122,121,122,121,120,113,121,119,120,121,121,121,122,128,120,122,121,120,121,120,122,131,121,120,120,121,122,121,121,115,120,119,121,121,123,122,119,111,119,122,121,121,122,121,121,127,120,118,121,121,121,120,122,131,119,120,120,120,122,121,121,116,118,120,122,121,123,121,119,110,120,120,121,121,121,121,122,128,119
122,123,122,122,120,122,132,123,120,122,122,123,123,121,115,120,119,120,120,122,122,120,111,119,120,121,120,121,121,121,127,118,120,122,121,121,121,123,132,122,121,122,121,122,121,120,114,120,121,122,120,122,121,120,113,122,120,122,120,121,121,121,126,119,122,122,120,121,121,122,132,120,121,122,121,123,121,119,114,121,118,120,120,122,122,121,112,120,122,121,121,121,120,122,129,124,120,122,122,122,121,123,130,119,123,122,121,122,122,121,114,120,119,121,120,123,122,121,114,122,120,120,121,121,121,122,127,120
122,122,121,121,121,123,132,120,122,121,121,123,122,121,114,121,119,121,120,122,122,120,112,121,119,120,121,121,120,122,128,118,123,122,122,122,120,121,130,119,121,122,121,122,122,121,116,121,120,121,120,122,122,120,114,120,121,121,121,121,120,121,127,120,122,122,120,121,121,122,130,121,121,123,121,123,121,120,114,120,119,120,121,123,121,120,113,121,121,121,121,121,121,122,128,120,122,123,122,122,121,122,129,121,121,122,121,122,121,120,115,121,120,121,121,123,122,119,112,121,119,119,120,121,121,121,127,118
119,121,121,121,121,122,128,119,121,122,121,123,122,120,115,121,122,121,120,122,122,120,114,121,121,121,121,121,121,122,129,120,120,123,122,122,121,121,128,119,121,122,121,123,122,121,115,118,120,121,120,122,122,120,114,121,120,121,121,121,119,121,127,119,122,121,121,121,121,122,128,121,121,123,121,122,122,120,115,120,118,120,120,123,122,121,113,120,120,120,121,121,120,120,126,118,123,123,122,122,121,122,129,121,121,122,120,122,121,120,116,121,119,121,121,123,121,119,113,119,120,120,121,121,121,122,128,119
122,122,122,122,121,122,130,121,120,121,121,123,122,121,113,121,119,120,120,122,121,120,119,119,120,121,121,121,120,121,127,121,120,122,122,122,121,121,126,119,121,122,121,123,122,120,113,120,120,122,120,122,121,119,113,120,121,120,120,121,120,122,127,118,121,121,121,122,122,123,128,122,120,122,122,122,121,121,115,120,120,120,119,121,121,120,116,120,121,122,120,121,121,121,129,121,121,121,121,122,121,122,126,120,120,122,121,122,122,121,115,120,119,121,121,122,121,119,113,119,120,120,120,121,120,122,128,120
121,122,122,121,120,121,129,120,119,121,120,122,121,121,114,118,119,120,121,123,122,120,111,118,122,121,121,121,121,122,125,119,121,123,121,120,120,122,127,120,119,121,121,123,122,120,114,121,118,120,120,122,122,119,114,119,120,121,121,122,120,121,128,119,122,122,121,122,122,123,129,121,120,122,121,122,122,120,115,119,120,121,121,122,122,120,113,119,120,121,121,122,121,122,129,121,122,122,122,122,121,121,127,119,120,121,121,123,121,120,114,119,121,121,120,122,122,121,117,122,120,121,120,121,121,122,128,119
121,122,122,121,120,121,127,120,121,121,121,122,122,121,116,120,119,120,121,122,122,121,115,119,119,120,120,121,120,121,127,120,120,121,121,121,121,122,127,119,121,122,122,123,122,120,114,121,120,121,120,122,122,121,114,119,120,121,121,122,121,124,135,121,121,123,121,120,120,122,127,120,123,122,121,123,122,120,114,119,117,119,120,122,121,120,114,119,121,122,121,121,120,121,128,122,121,121,121,121,120,122,128,121,121,121,121,122,122,121,113,120,119,121,121,123,122,120,113,117,122,121,121,121,121,122,130,124
121,122,122,122,122,122,127,119,121,121,120,122,121,120,115,121,120,120,120,121,122,120,116,119,121,121,121,121,121,121,125,120,122,122,122,122,121,122,126,120,120,122,121,121,121,120,115,120,120,122,121,121,121,121,116,120,120,121,121,121,120,121,128,120,121,122,122,121,120,121,127,120,121,121,121,123,122,121,116,121,120,121,120,121,121,120,117,120,120,120,121,122,121,122,127,119,122,123,121,121,121,122,126,121,119,122,122,122,121,120,115,121,119,119,119,122,121,119,114,117,122,121,122,121,120,123,129,123
123,122,122,122,121,121,126,123,119,121,121,122,121,121,114,118,119,121,120,121,121,120,116,119,119,120,121,121,121,122,129,121,122,121,121,122,121,122,125,120,119,121,120,122,122,121,116,120,119,121,121,122,121,119,114,119,121,122,121,121,121,122,129,122,121,122,122,122,121,121,125,120,120,121,121,122,122,121,116,120,120,121,120,122,122,120,111,118,121,122,121,122,121,122,127,119,121,122,122,122,121,121,128,122,122,122,121,122,121,121,114,122,119,121,120,122,121,121,117,118,121,121,121,120,120,122,128,122
122,122,121,120,120,121,125,120,120,122,121,123,121,120,115,120,118,120,121,122,121,119,116,119,119,120,121,121,121,122,128,120,122,121,120,121,121,121,127,121,121,123,121,122,121,120,115,120,121,120,120,122,121,121,116,119,119,121,121,121,121,122,127,119,121,122,122,121,121,122,126,120,121,122,121,122,121,120,115,120,119,120,121,122,122,121,118,119,121,121,121,121,121,121,127,120,122,123,122,122,121,121,124,120,119,121,121,122,122,121,116,122,121,122,121,122,121,119,108,119,119,120,121,121,120,120,123,115
122,122,122,122,122,122,126,121,120,122,121,123,122,120,116,119,120,121,120,122,121,121,119,120,122,122,121,122,121,122,128,126,121,122,121,122,121,119,126,123,121,122,121,122,121,120,114,118,118,120,121,122,121,119,117,118,122,122,121,121,120,121,123,120,121,122,121,122,121,122,124,119,120,122,121,122,122,121,116,120,122,121,121,123,122,121,117,120,117,121,120,120,120,121,127,120,121,122,122,122,121,121,122,120,120,121,121,122,122,121,116,120,121,121,120,121,120,120,117,120,120,122,121,121,120,122,126,118
123,122,122,121,120,121,123,124,122,123,122,123,122,120,129,123,119,121,121,122,123,124,121,118,121,120,120,121,120,119,125,121,121,122,122,122,121,121,124,119,119,121,121,122,122,120,114,118,119,120,119,121,121,120,118,119,119,120,120,121,121,122,128,119,121,122,121,122,122,122,125,119,121,122,121,123,122,121,115,121,118,120,121,122,122,119,117,117,119,120,120,121,121,122,129,119,122,123,122,123,121,121,124,121,120,121,121,123,122,120,113,118,119,120,120,122,122,122,119,119,118,120,120,121,121,121,128,119
122,122,121,121,121,122,125,120,121,122,122,123,122,122,116,122,121,122,121,121,120,118,118,122,122,121,121,121,121,127,123,120,119,122,122,122,121,119,126,123,121,122,121,123,122,121,114,119,119,119,119,121,120,119,115,116,121,121,120,121,121,118,126,120,120,123,122,122,121,120,126,120,122,122,122,122,119,121,121,123,120,121,121,122,122,120,111,118,120,122,120,120,119,119,138,118,123,121,121,121,122,128,124,125,121,122,122,122,117,119,109,118,120,122,121,122,123,124,127,122,120,121,120,120,119,119,123,119
120,122,122,123,123,122,124,119,120,122,121,122,120,119,111,119,120,122,121,122,121,120,116,118,121,121,121,121,123,123,130,123,121,121,121,121,122,122,122,119,120,121,121,121,118,121,114,120,120,120,120,122,124,121,119,120,121,122,122,127,127,123,131,118,120,122,121,120,119,121,123,120,121,121,121,123,124,121,112,121,119,120,120,121,121,123,118,119,120,121,121,122,121,123,132,120,120,121,121,121,121,122,124,118,120,120,121,121,121,119,111,124,116,120,119,120,121,124,118,120,121,121,122,123,122,127,140,120
120,121,120,121,123,117,125,115,122,123,122,123,122,127,105,123,119,120,120,123,113,123,124,119,120,121,121,119,119,121,126,119,122,120,120,120,124,118,119,124,118,119,119,119,119,121,114,116,120,120,120,125,131,124,110,121,121,123,122,122,117,123,136,120,122,122,121,123,121,118,136,126,122,121,119,120,124,119,100,120,119,120,120,120,118,119,108,119,119,120,121,120,121,121,148,118,123,123,120,121,122,127,153,119,121,122,122,123,130,123,31,129,117,122,122,130,132,125,0,118,122,119,113,113,99,108,0,129
122,126,128,130,128,121,241,114,125,125,122,121,137,116,0,124,121,121,115,115,112,124,0,131,126,125,128,124,127,116,0,122,119,125,123,126,124,118,240,120,120,124,119,131,85,127,66,117,121,123,131,142,156,117,0,117,122,124,127,120,90,122,0,131,122,121,118,112,128,124,241,112,133,122,109,112,54,137,114,156,119,120,103,108,116,103,0,114,118,117,122,134,139,130,0,119,119,120,113,114,106,117,241,119,121,120,109,109,104,123,126,117,122,121,115,124,118,119,0,129,121,122,135,125,130,115,0,118
120,123,121,122,121,125,240,119,114,114,121,112,111,114,120,98,128,116,92,108,112,117,0,150,124,119,130,148,144,133,0,129,119,120,120,115,128,120,241,112,116,111,109,111,129,117,59,108,121,103,94,112,127,108,0,124,120,104,150,129,122,128,0,126,129,126,117,116,113,123,241,149,120,124,121,122,121,136,137,116,118,127,116,119,121,125,0,119,121,128,121,123,121,121,0,120,121,125,125,124,122,122,241,119,121,119,107,116,119,120,100,120,121,130,160,133,124,119,0,124,119,121,109,116,119,120,0,122
122,124,155,121,120,120,240,118,122,123,132,124,124,121,108,124,116,112,116,119,119,119,0,124,124,114,77,109,123,123,2,107,126,114,137,132,123,121,241,147,120,91,113,119,117,117,123,114,121,80,122,126,120,116,0,118,122,28,109,114,122,125,2,129,119,99,110,130,127,120,242,109,123,121,113,120,120,122,111,126,116,205,132,112,117,117,0,121,121,137,131,127,120,116,11,118,130,90,137,122,120,121,240,145,122,109,123,120,121,128,106,116,122,153,107,122,125,122,0,121,122,160,119,124,128,123,0,123
122,154,135,119,119,115,241,119,120,165,106,121,126,117,85,123,120,153,127,118,119,120,0,126,116,120,108,117,126,114,0,107,122,83,121,123,120,120,243,124,116,128,85,113,121,122,107,89,128,166,127,132,124,122,0,128,113,134,103,114,120,123,4,93,116,108,109,117,114,119,241,118,127,88,81,118,127,115,79,130,121,115,131,127,119,122,0,127,113,126,103,118,131,116,0,124,123,116,167,132,124,122,242,109,122,102,108,119,120,118,51,122,117,114,101,108,116,116,0,121,118,154,167,134,125,125,0,121
122,118,121,112,117,114,242,121,121,99,93,127,109,143,76,126,116,121,113,118,119,110,0,120,121,137,124,112,125,112,16,122,120,112,115,121,119,122,241,116,118,102,132,122,121,126,47,114,121,136,109,120,121,121,0,125,123,142,127,119,118,121,9,131,120,118,122,124,122,132,241,115,121,100,121,123,117,105,62,121,119,130,112,119,120,117,0,121,118,137,129,119,122,129,13,118,106,114,140,126,121,116,241,93,122,101,125,124,119,120,49,119,121,130,156,129,126,119,0,115,117,136,123,117,120,119,0,120
123,123,156,143,124,121,241,117,125,101,120,123,126,127,33,138,117,135,122,118,120,120,0,114,114,135,109,114,125,122,18,113,119,92,116,121,128,125,240,115,121,92,104,118,121,125,16,118,123,125,126,128,121,122,0,131,115,140,109,116,119,119,12,123,124,120,122,120,119,116,240,108,122,108,129,125,123,130,1,139,117,138,121,123,119,106,0,106,119,148,124,118,123,134,23,141,122,119,104,122,121,120,242,114,121,97,120,124,120,121,9,133,120,126,121,120,117,128,0,116,120,141,105,111,128,112,34,119
126,113,124,128,123,126,241,134,118,94,147,138,124,122,0,132,112,141,125,121,118,118,0,105,122,155,104,109,119,123,34,121,118,119,134,122,122,121,242,108,126,96,118,124,122,120,0,128,118,120,109,116,118,119,0,127,121,149,130,120,121,122,37,116,122,118,119,133,123,119,240,124,120,91,122,121,116,116,0,120,120,128,113,107,121,113,0,123,121,164,120,130,120,125,44,118,126,120,134,126,110,122,241,108,124,83,114,112,106,116,0,147,115,129,125,111,120,137,0,111,114,139,101,102,138,105,36,111
130,123,142,148,85,120,241,134,114,99,117,109,133,108,0,105,130,130,117,100,92,121,0,137,115,155,54,116,115,123,48,113,119,122,107,111,121,122,240,116,126,101,118,127,121,123,0,138,124,128,114,99,116,121,0,122,119,151,126,130,123,120,61,116,130,107,129,118,120,138,241,151,117,94,117,118,119,118,0,115,115,119,137,126,121,117,0,112,123,145,110,112,117,121,51,122,127,122,117,125,117,127,241,133,123,87,115,122,127,121,0,123,119,140,132,124,122,122,3,125,115,148,107,107,115,121,58,123
110,111,130,116,120,120,241,100,120,95,169,149,122,109,0,103,122,121,118,110,119,124,1,153,116,152,106,119,111,123,56,112,121,104,123,130,125,128,241,124,129,98,118,131,124,150,0,137,123,126,139,117,118,105,8,130,124,144,101,121,123,121,65,141,124,114,143,134,123,127,240,144,128,95,128,127,141,148,0,111,118,128,124,135,135,133,13,134,122,158,118,108,119,124,66,125,118,113,122,120,124,129,241,119,130,96,125,119,120,115,0,117,112,126,111,125,121,139,10,123,120,153,123,108,115,121,83,115
126,108,124,134,124,123,241,121,117,92,131,129,117,116,0,117,111,132,138,121,124,122,3,123,117,152,121,120,119,112,119,112,121,114,139,126,121,119,241,98,118,95,124,128,133,114,0,118,122,130,142,128,113,131,0,116,121,154,86,121,130,123,149,129,118,116,115,117,139,113,240,105,118,83,117,123,118,119,0,112,120,125,105,112,108,104,0,126,121,151,136,124,129,139,124,118,117,116,121,124,106,113,241,117,119,91,120,126,119,121,0,125,123,129,146,133,119,133,0,116,111,147,113,108,107,109,105,107
124,113,117,122,123,120,242,121,130,84,121,128,125,116,0,137,118,128,121,121,123,110,0,128,124,155,120,104,115,119,94,118,111,111,115,123,125,127,241,116,121,97,128,138,117,88,0,114,118,134,118,116,113,117,4,111,128,152,104,108,115,118,169,139,131,112,123,123,124,120,242,130,116,81,102,124,107,135,0,128,113,139,155,126,115,117,0,108,127,153,119,123,117,130,192,130,128,120,124,125,127,129,240,132,113,103,126,128,112,109,3,113,124,132,118,119,126,122,0,121,121,142,121,116,121,118,241,97
127,114,123,124,120,122,241,129,118,90,129,125,128,138,0,115,119,128,101,120,133,132,0,100,118,139,134,136,129,124,123,129,118,121,117,110,122,115,241,120,126,87,129,140,135,124,0,137,105,127,111,114,131,122,0,110,123,146,127,120,121,82,83,116,118,103,115,114,127,134,242,111,118,82,114,128,110,106,0,134,129,124,121,120,124,135,27,143,124,144,132,111,113,126,85,127,109,126,117,127,137,124,241,102,115,86,122,128,115,116,0,114,129,126,109,118,125,134,45,111,130,159,116,118,117,116,142,127
115,123,117,121,127,134,241,100,116,88,124,125,130,113,0,113,125,133,128,121,118,131,30,116,123,161,122,109,117,121,162,120,122,113,122,127,123,115,241,126,121,87,129,125,118,121,0,143,120,140,113,118,114,111,25,120,111,156,122,121,129,128,219,85,122,108,127,128,115,114,240,125,120,90,114,122,128,119,0,118,122,130,125,120,123,124,3,125,118,153,112,111,115,119,210,119,115,112,126,119,117,114,242,114,123,93,115,119,121,139,0,120,128,125,125,129,114,110,2,141,113,155,114,102,124,139,117,117
124,118,107,121,121,95,240,110,123,90,124,128,126,126,0,120,130,131,118,126,129,122,46,137,120,156,119,110,117,109,167,123,118,110,119,120,121,121,240,119,115,78,120,139,121,115,0,116,124,132,119,112,128,104,37,103,122,154,114,106,111,119,222,126,129,111,124,122,93,88,241,132,114,91,124,129,127,135,0,119,125,138,121,112,119,122,10,113,123,151,115,124,119,125,164,115,116,124,121,122,131,119,242,121,116,91,133,128,127,131,0,122,124,124,133,125,117,119,30,123,118,151,119,116,126,128,242,116
123,114,129,126,116,118,240,120,119,93,117,130,120,113,0,121,111,138,120,112,123,126,0,114,119,148,116,118,124,119,240,113,119,118,111,108,116,117,242,120,132,90,124,137,129,118,0,126,114,130,115,114,114,122,0,123,133,146,111,122,130,126,229,132,108,111,122,119,122,128,242,103,119,82,115,123,136,148,0,114,125,134,122,125,106,118,0,118,117,152,116,116,135,113,241,120,114,113,114,121,124,125,241,112,122,91,131,130,110,113,0,125,119,130,116,118,121,121,0,115,123,151,120,116,116,136,242,126
124,112,124,126,129,110,240,115,117,88,104,123,117,121,223,121,117,132,126,121,126,124,155,119,118,161,122,115,120,122,241,117,125,113,108,117,130,126,240,120,110,95,106,112,124,101,88,112,119,131,112,124,123,124,0,115,124,156,110,104,100,97,241,115,117,117,138,135,128,129,241,121,122,83,123,120,110,127,0,125,118,148,129,144,129,126,0,121,117,150,117,112,129,118,169,130,123,115,117,118,122,120,183,113,122,103,129,127,119,112,0,126,114,145,119,118,110,119,0,123,122,160,118,113,117,115,0,107
117,88,115,121,127,122,53,131,114,53,127,127,121,123,0,94,114,113,116,121,124,124,28,111,131,153,123,117,111,129,145,132,108,108,127,123,125,125,242,114,129,82,110,123,119,118,0,124,125,138,120,118,121,119,45,130,105,169,105,99,121,132,240,123,129,106,137,151,127,113,242,116,121,80,124,116,119,125,0,135,122,151,122,117,119,123,22,125,116,158,98,122,116,125,211,119,113,115,149,118,126,144,242,130,116,86,133,124,95,104,0,115,124,155,120,137,124,149,49,115,121,169,104,106,118,111,211,116
126,108,145,124,110,125,239,138,112,72,121,132,126,112,2,116,116,136,125,110,119,123,58,115,129,164,106,108,120,125,208,122,136,122,129,138,121,150,223,106,135,75,123,126,120,105,19,118,97,130,121,118,119,120,68,119,128,161,112,113,115,127,241,131,127,112,137,133,130,123,242,110,119,68,107,126,127,122,0,122,119,130,132,120,126,129,3,112,118,164,106,113,130,107,242,115,116,108,116,126,121,130,241,110,117,75,128,126,121,117,0,133,117,116,125,123,124,125,0,89,126,191,117,120,122,122,241,129
119,110,142,134,121,117,240,122,124,71,116,124,120,110,241,116,120,165,128,113,124,133,242,114,121,164,124,116,116,121,241,111,114,100,111,123,119,117,242,124,125,67,139,126,120,124,241,111,97,121,109,112,119,105,241,110,125,199,129,116,123,125,240,115,135,133,112,143,122,110,242,113,118,135,121,122,123,115,170,113,119,174,122,115,116,147,134,132,132,174,122,116,115,138,125,123,110,88,113,121,127,131,122,119,122,78,119,120,118,122,122,108,133,110,117,126,122,120,122,116,115,160,136,116,118,121,122,120
127,106,117,121,119,114,122,133,112,71,126,125,126,127,122,81,119,136,124,119,116,117,122,119,139,172,119,113,105,123,122,140,94,101,115,122,116,121,122,98,126,62,118,123,113,124,122,117,131,132,115,118,120,122,122,127,120,169,129,115,139,133,121,122,119,106,113,134,122,120,122,117,118,70,116,125,118,99,122,110,119,136,104,114,115,136,121,129,121,162,141,127,119,111,121,118,122,102,121,121,111,148,121,121,116,75,124,127,125,112,122,100,120,134,110,116,121,126,122,122,124,166,131,136,129,125,121,102
124,101,127,116,117,121,121,158,116,80,122,146,125,111,121,116,117,140,117,122,137,152,121,114,123,165,126,112,120,123,121,142,126,123,125,125,121,124,121,122,130,81,115,131,131,146,121,119,102,136,140,120,124,128,121,97,109,152,112,116,117,114,121,113,137,91,106,119,120,119,122,128,132,80,122,126,122,117,121,141,114,118,97,113,124,119,122,96,108,166,143,122,124,123,122,115,129,97,112,119,120,130,122,124,117,76,115,122,130,111,121,111,123,120,115,118,125,132,121,121,117,154,98,119,117,122,122,142
117,96,138,136,126,123,121,108,121,70,118,119,114,127,121,115,123,152,118,119,121,125,121,122,114,173,134,119,110,141,120,110,123,110,119,124,121,114,122,124,125,87,118,120,120,122,121,123,120,142,119,126,131,126,121,117,115,158,112,116,129,157,121,120,129,122,145,127,118,119,121,124,124,78,113,124,121,123,121,127,128,140,115,116,122,111,121,130,105,157,114,113,117,124,120,113,116,104,141,126,123,121,121,106,120,71,107,128,122,120,0,134,102,128,130,122,119,119,28,87,126,151,103,104,119,120,241,122
137,122,125,114,120,121,162,141,113,71,111,128,121,125,0,112,118,114,119,115,107,104,14,133,125,152,120,123,123,145,240,117,118,92,119,124,113,140,241,124,120,78,121,127,116,118,151,125,119,140,110,119,127,107,127,118,123,172,109,117,119,119,122,132,113,98,131,125,132,132,122,103,123,61,113,124,124,139,121,142,122,130,101,115,98,121,122,106,121,187,130,118,117,121,141,121,115,77,105,118,124,110,0,121,127,81,119,124,117,118,0,121,121,143,133,127,125,128,76,131,120,179,118,118,124,147,191,119
129,101,118,119,119,134,73,123,105,62,107,117,117,117,21,128,120,141,131,123,125,109,128,125,123,179,108,116,128,146,174,101,123,121,136,131,136,115,75,128,128,63,91,121,115,120,23,128,116,146,132,126,118,125,101,104,113,181,112,111,128,131,165,142,125,103,119,114,115,91,86,122,131,47,127,139,128,120,50,122,119,118,115,114,122,129,134,123,111,163,123,120,119,122,164,116,105,72,143,133,131,121,87,112,123,11,129,122,119,122,55,123,127,124,111,114,128,144,128,121,128,182,135,115,127,105,163,129
102,116,107,119,118,117,87,112,126,71,125,123,116,102,60,119,118,153,123,121,120,118,127,125,124,223,101,116,118,128,168,117,118,153,125,122,121,127,98,113,118,101,135,128,123,119,65,122,120,168,124,120,126,99,131,115,119,203,110,114,119,119,161,119,119,99,129,129,121,128,94,114,125,47,124,126,110,136,74,131,120,124,120,115,123,125,132,102,126,172,121,123,114,135,165,123,111,99,131,126,98,119,102,118,136,35,117,129,125,132,71,130,111,109,115,121,118,119,127,112,122,172,139,125,118,118,167,115
135,85,111,117,121,108,106,128,114,22,129,125,123,117,69,112,126,108,122,112,111,145,138,139,124,145,107,122,122,118,167,125,114,35,109,119,112,119,102,138,123,0,129,126,127,110,63,119,136,28,113,111,122,146,147,128,100,123,111,116,122,113,163,105,130,42,124,117,121,120,105,136,119,0,126,126,132,128,73,124,122,82,118,118,123,113,124,99,122,220,113,116,121,137,179,145,125,137,121,123,109,105,102,122,119,52,112,129,122,115,70,110,116,135,110,118,118,141,131,116,122,242,131,119,128,121,164,122
118,175,121,120,117,120,106,130,120,58,109,126,111,119,73,116,120,166,112,117,120,117,130,118,123,239,111,112,116,121,164,121,109,157,110,123,121,112,109,120,124,58,145,132,140,142,75,144,112,144,124,122,119,113,133,106,119,241,117,112,134,139,158,114,129,143,108,123,119,128,113,129,113,57,134,127,126,135,79,90,116,160,130,121,131,141,139,116,129,241,120,119,112,118,160,122,106,121,113,125,136,123,112,120,130,63,138,127,100,104,78,123,119,219,123,117,125,140,138,118,120,242,109,117,119,125,157,118
109,196,127,121,120,113,104,112,120,76,109,130,121,126,83,104,125,160,109,116,108,108,136,137,123,222,126,114,120,115,154,112,124,107,112,118,124,118,102,132,116,9,131,129,146,122,88,106,117,66,118,118,120,120,131,128,116,187,116,117,121,122,151,115,121,104,139,122,111,129,105,120,125,0,131,122,120,123,82,120,127,104,127,123,122,116,137,137,112,162,125,113,118,131,156,112,109,42,113,127,119,116,105,116,118,0,120,130,127,120,83,122,132,42,116,119,126,136,136,122,112,175,103,109,110,145,152,120
119,102,170,126,131,115,108,110,124,36,99,122,121,117,81,127,118,128,130,120,117,123,136,134,119,210,99,114,123,124,149,109,117,114,130,132,135,118,111,127,125,7,126,126,118,136,91,127,123,99,113,113,119,118,132,124,116,220,128,126,119,129,162,113,125,121,121,129,121,101,116,121,119,30,113,124,100,119,86,110,124,123,139,124,127,129,141,126,126,226,119,116,125,126,159,118,121,102,126,123,123,87,105,119,124,5,109,126,125,130,91,129,126,126,126,127,138,123,131,121,122,240,132,116,118,121,155,110
109,157,117,122,121,119,107,131,127,40,104,128,126,109,88,136,129,144,136,121,127,124,134,126,119,241,111,121,117,134,153,116,115,124,131,125,117,118,108,121,138,45,135,123,121,117,85,132,102,135,118,112,117,123,127,81,117,229,107,122,114,140,153,122,126,100,133,125,125,125,107,121,125,10,135,127,116,118,86,120,118,120,114,118,131,111,139,127,114,217,116,122,116,128,153,111,114,107,118,122,127,117,104,119,127,6,131,120,100,82,86,129,120,81,135,132,123,129,131,113,120,189,115,113,119,123,154,121
133,93,107,121,120,114,109,125,109,10,139,131,122,117,82,116,112,126,120,120,120,115,130,116,121,212,121,116,118,147,158,120,123,74,115,129,128,119,107,115,123,0,124,127,130,117,82,114,109,0,120,116,114,121,129,108,139,133,122,119,125,126,154,117,109,66,113,122,110,103,112,128,122,0,121,134,118,113,88,122,124,125,105,110,116,122,134,123,118,226,114,124,133,133,157,123,123,185,128,130,130,120,107,116,128,63,125,121,110,128,91,127,116,157,119,119,122,106,135,124,118,242,115,113,103,111,154,121
121,155,116,120,118,130,108,119,124,17,125,124,120,121,87,117,122,93,118,120,127,124,135,130,122,195,113,118,112,115,157,136,110,8,130,126,137,119,99,101,126,0,125,127,120,107,85,118,116,0,136,120,115,128,131,103,117,0,131,119,124,121,155,126,112,0,127,116,118,119,103,105,126,33,128,138,132,108,86,121,121,70,128,120,116,124,133,121,121,91,114,117,116,125,156,116,114,104,124,123,119,121,110,118,121,111,130,118,117,109,86,117,129,114,106,142,123,127,134,123,116,117,115,105,114,127,148,112
119,118,109,119,134,133,112,130,118,119,131,132,133,150,88,113,130,119,124,119,122,104,130,127,117,120,115,117,123,125,158,122,125,120,127,127,122,125,107,115,118,120,115,125,123,122,87,117,119,121,117,120,123,125,135,123,125,242,122,120,118,121,150,121,118,242,125,124,120,120,115,131,122,240,114,126,127,123,85,109,119,240,119,122,123,135,142,143,117,241,120,119,122,123,156,115,123,242,119,125,126,118,102,122,119,190,117,123,132,125,88,119,120,241,117,119,120,114,132,109,122,242,118,118,144,136,153,117
119,240,126,130,134,127,111,121,133,58,126,132,114,125,92,127,109,100,113,117,119,122,130,105,120,208,114,113,120,108,155,106,129,143,121,127,124,120,109,130,129,37,119,120,119,117,88,125,109,156,128,129,125,119,132,122,123,225,118,115,115,132,151,118,125,111,119,118,116,114,115,134,122,24,113,127,126,121,88,124,123,241,142,130,127,122,135,118,112,241,111,119,113,122,151,117,117,241,117,124,111,120,108,120,125,224,122,118,117,121,86,114,119,145,146,130,117,110,134,118,125,127,123,118,116,130,160,129
118,37,114,121,125,119,111,120,120,0,129,122,118,116,91,126,119,50,118,120,121,119,126,111,116,132,119,120,122,106,151,98,126,24,123,124,130,99,111,138,124,0,135,130,139,114,87,116,118,34,127,120,114,122,132,122,119,146,116,117,127,113,153,124,111,49,120,121,126,117,108,112,123,0,125,128,121,116,90,121,122,49,126,121,125,122,132,120,126,164,116,116,118,128,156,119,116,71,119,135,126,134,107,130,119,2,115,110,98,112,87,119,124,122,114,118,133,117,134,125,113,240,133,125,144,135,155,116
126,123,118,125,142,125,101,111,121,25,127,126,122,122,94,135,122,143,119,117,132,150,135,122,117,242,109,125,124,123,155,113,120,127,126,120,119,121,112,124,115,8,121,123,128,122,86,117,119,126,116,127,126,115,129,118,121,206,119,113,101,120,155,119,119,133,133,127,122,126,107,117,122,11,119,122,117,123,93,119,122,135,113,119,121,164,130,119,115,222,133,123,112,131,153,99,119,126,119,123,122,133,104,117,125,28,119,124,132,115,86,121,114,142,116,117,119,125,133,118,118,241,111,116,124,139,152,105
124,189,125,127,122,124,114,137,126,74,127,115,122,114,85,123,120,197,126,130,124,118,138,123,116,242,110,115,114,123,149,111,122,164,129,130,125,120,106,127,119,21,127,116,122,121,85,121,114,133,113,122,124,121,135,111,121,193,129,120,128,125,154,116,119,180,121,124,119,116,105,117,120,136,123,120,123,107,88,121,120,228,113,118,115,105,132,113,118,242,117,121,115,139,160,117,120,230,114,123,125,118,110,111,125,145,145,135,128,116,86,147,111,127,114,117,113,141,137,117,121,123,113,115,116,83,149,115
127,101,137,125,122,129,106,120,118,21,124,129,149,75,96,151,128,117,117,119,119,129,135,117,108,144,119,120,123,125,152,113,124,25,124,119,116,117,106,121,128,0,117,124,129,131,93,123,123,74,119,118,121,122,138,121,112,136,116,117,123,125,150,108,122,102,118,122,118,120,109,115,124,62,114,123,118,120,90,123,123,158,128,126,121,139,143,128,127,196,119,118,119,119,151,113,111,68,122,122,135,124,104,115,124,15,124,127,120,114,88,114,122,112,126,124,125,121,137,132,119,155,122,119,128,111,150,116
115,72,122,122,128,124,110,132,121,20,123,133,136,121,87,119,121,101,119,118,118,119,134,121,120,157,123,118,119,122,153,118,120,93,123,124,120,118,104,117,116,37,125,123,122,120,89,122,122,131,119,120,121,121,135,119,121,199,125,120,117,120,155,118,121,100,112,120,123,121,112,126,122,29,123,123,121,123,87,124,113,133,123,122,125,125,132,114,126,194,108,124,127,116,150,110,123,95,110,117,119,117,107,131,114,42,141,129,122,130,85,106,118,149,112,117,114,123,137,119,127,216,120,119,127,149,151,123
117,199,115,129,125,127,113,132,126,91,125,121,118,117,90,120,120,186,128,125,122,130,142,119,116,221,119,120,118,136,153,108,122,89,129,123,121,129,105,124,120,45,120,125,123,123,88,127,119,136,117,118,115,124,134,109,121,181,109,117,118,124,151,124,118,92,131,120,114,105,105,113,126,43,123,127,125,123,91,121,115,130,121,119,118,120,135,123,123,152,114,117,120,105,152,113,121,74,118,123,121,121,105,128,121,26,127,123,121,120,88,119,113,126,117,122,111,111,134,124,123,167,134,115,114,130,156,120
123,73,100,125,142,96,105,117,118,41,115,114,118,114,90,128,123,146,120,119,110,113,135,133,115,178,119,120,118,119,147,114,125,91,113,118,117,119,108,121,121,56,121,127,137,132,93,120,115,135,119,117,120,114,132,117,124,180,121,118,117,119,153,120,122,90,118,121,121,119,107,116,117,72,123,121,103,88,93,126,124,144,112,124,140,122,135,119,119,170,116,122,114,119,150,121,114,90,119,121,119,121,108,121,127,62,115,122,119,117,89,130,123,130,118,117,119,121,133,121,115,176,126,124,133,126,154,129
120,98,120,117,124,117,107,114,124,63,122,130,114,113,91,124,115,147,126,118,106,110,130,116,122,172,116,123,124,132,157,119,121,93,121,119,112,114,103,113,124,70,127,124,129,122,94,118,111,148,136,129,120,118,134,115,129,181,115,120,117,128,153,127,124,104,120,121,114,133,108,121,120,62,117,124,134,115,94,121,127,129,128,123,117,119,132,120,114,173,111,123,121,126,153,127,123,94,126,123,120,115,105,123,122,49,121,124,122,115,89,120,122,144,121,116,120,121,135,119,117,178,132,127,121,116,150,117
123,87,121,121,116,137,111,123,121,55,117,123,120,114,91,119,118,148,130,123,119,119,132,118,121,174,110,121,119,122,149,118,124,95,120,121,126,119,106,126,117,60,119,125,123,122,93,116,122,156,117,118,116,126,133,117,122,192,120,120,120,121,151,125,127,98,118,121,123,130,108,128,110,46,135,122,105,120,92,128,120,141,108,118,135,122,136,121,129,181,113,119,122,129,152,127,113,112,123,121,103,112,103,117,118,66,120,125,125,125,94,95,123,151,122,119,115,125,135,122,123,172,118,119,124,116,151,113
125,93,116,128,131,130,107,127,113,59,131,123,122,120,92,116,119,149,131,124,114,120,132,116,122,183,117,119,121,123,147,116,122,102,117,122,122,118,110,120,122,64,124,123,119,118,90,121,123,135,115,123,122,137,141,124,117,167,110,119,111,125,149,123,119,100,109,121,116,122,103,117,119,71,122,121,122,118,91,116,122,145,117,120,118,110,133,121,119,160,121,116,120,132,153,119,122,91,120,132,120,90,108,116,120,66,121,119,111,110,93,117,118,153,123,125,124,122,134,124,121,180,118,119,123,133,150,119
127,88,121,122,121,122,107,120,110,66,121,127,121,119,91,120,119,157,111,119,117,123,137,118,126,191,120,119,117,118,149,117,123,85,123,127,124,120,107,125,114,57,121,125,122,123,93,104,124,150,91,117,120,120,136,128,123,170,130,121,122,128,153,122,119,90,109,113,119,112,105,117,116,63,133,127,117,128,91,126,126,140,145,134,126,126,134,119,120,190,117,122,117,121,150,122,121,101,119,122,118,116,107,127,122,61,124,124,114,121,91,115,120,134,135,126,128,134,136,113,122,181,117,118,121,117,151,127
121,94,119,120,117,138,106,119,121,76,127,124,118,111,90,129,121,140,125,123,121,128,139,120,120,175,110,120,122,122,151,118,117,97,111,121,111,114,105,121,126,73,123,122,107,103,94,124,116,154,120,121,122,128,138,119,120,187,126,121,122,120,154,124,117,85,115,119,118,118,105,117,124,73,118,123,122,122,97,125,119,143,115,119,120,124,135,116,119,176,117,119,119,122,151,126,120,94,130,126,119,119,104,115,121,60,120,123,122,119,94,121,118,145,129,125,120,121,133,117,121,173,129,121,121,122,150,119
122,101,130,134,132,121,107,120,119,65,126,115,114,120,87,119,123,148,82,115,123,131,139,125,116,168,129,124,117,116,149,117,127,101,120,119,113,125,107,127,112,73,122,117,114,136,87,107,114,155,121,119,120,125,132,118,125,171,127,122,126,125,155,116,121,86,122,121,121,121,104,122,115,63,121,123,129,108,93,118,120,141,122,121,122,127,135,121,122,180,122,122,123,121,154,135,120,97,105,123,117,122,108,120,119,70,119,122,122,125,96,119,123,155,119,119,120,121,136,120,124,160,116,118,121,123,149,120
118,97,128,123,123,123,107,119,119,73,124,125,123,116,90,123,115,147,120,118,117,119,136,125,123,171,118,121,134,116,150,115,127,94,143,123,123,122,103,123,113,74,129,129,120,114,83,109,120,147,124,119,118,122,135,111,123,165,114,111,135,139,150,121,124,110,119,124,130,128,114,119,121,80,140,141,122,117,88,120,121,142,124,125,120,121,138,119,122,154,99,110,122,122,148,118,122,103,130,124,123,118,104,119,119,75,124,121,121,124,88,114,122,136,122,123,120,131,144,121,119,166,130,127,123,116,149,118
124,95,117,120,108,116,107,124,118,80,136,125,120,120,88,115,124,140,135,128,120,118,140,127,118,164,78,112,121,123,156,118,122,89,125,124,122,121,105,112,114,73,117,121,126,121,88,122,123,148,116,118,123,115,140,119,119,172,121,125,130,125,152,118,119,81,117,119,124,124,105,121,120,77,110,114,117,113,83,115,121,149,132,125,123,119,145,141,121,167,108,118,116,121,154,124,121,120,144,132,125,116,100,125,121,69,124,127,141,118,93,126,119,149,120,120,117,117,137,126,113,159,120,119,126,127,158,113
129,86,125,128,120,117,102,123,120,69,124,123,107,119,91,126,120,152,101,128,127,130,144,125,123,167,117,118,123,115,156,121,118,88,123,118,118,120,104,117,119,81,111,128,126,121,86,119,117,160,107,112,118,132,142,118,123,168,117,120,121,119,148,119,116,91,123,123,99,111,105,116,120,78,116,114,117,119,89,137,120,147,123,121,116,127,138,114,128,165,123,118,119,121,151,119,116,94,121,127,120,124,100,118,124,86,142,130,123,104,90,118,119,146,132,122,119,131,142,129,121,172,110,117,119,119,154,122
120,81,122,124,125,123,103,120,120,63,126,123,111,112,84,118,122,142,127,120,123,118,138,122,115,164,112,116,116,120,151,108,120,89,128,122,116,123,102,119,119,79,107,123,117,120,88,123,123,149,126,121,112,121,140,119,120,157,102,111,119,117,150,108,122,104,145,134,122,118,107,128,120,91,123,126,123,113,88,123,122,142,122,122,122,122,138,110,118,153,114,114,117,119,154,124,122,101,126,127,122,122,103,120,120,82,121,120,125,122,89,119,122,145,120,126,121,125,142,117,121,178,121,114,108,124,158,137
121,106,130,124,122,123,105,116,120,79,119,118,119,117,91,133,116,164,127,125,117,132,148,104,119,162,123,119,118,120,153,117,116,98,121,118,114,122,96,112,124,66,114,121,128,119,85,124,120,151,133,127,121,115,141,115,122,163,119,112,104,106,154,117,118,92,120,118,118,121,99,119,119,88,108,123,109,117,87,127,121,165,141,117,121,126,144,120,119,153,108,123,119,125,156,124,123,103,116,117,145,117,102,127,122,77,121,124,131,115,84,122,123,140,107,118,117,122,142,107,119,168,125,122,119,121,154,114
126,96,125,120,120,120,100,133,116,90,82,116,124,119,89,129,118,142,130,123,114,118,136,115,124,150,118,117,120,141,155,115,123,97,127,124,121,118,99,122,120,83,111,117,114,121,81,125,117,154,152,131,123,118,146,117,122,156,108,123,106,119,162,120,117,93,122,117,126,119,93,115,122,85,115,118,116,114,75,108,120,147,115,118,123,118,150,138,121,164,122,130,129,128,162,121,121,101,133,124,120,119,94,123,120,83,113,115,116,105,80,125,120,133,123,119,101,113,149,114,123,139,103,118,126,133,171,114
119,95,132,123,116,112,87,112,120,97,118,122,119,132,79,132,114,154,117,110,115,131,136,110,123,151,156,142,126,119,166,125,119,92,128,114,115,127,94,123,118,82,112,124,140,120,83,119,122,132,125,122,122,125,150,118,120,151,116,118,117,119,162,118,117,87,125,132,147,126,90,113,126,102,128,126,124,123,85,132,121,142,118,120,120,126,151,115,124,147,120,115,121,123,177,142,123,99,133,123,121,115,86,122,121,69,122,116,117,129,77,121,119,127,128,127,116,106,149,112,121,153,106,116,126,130,168,127
121,87,120,115,118,117,89,120,116,75,118,120,118,115,75,115,120,152,129,122,127,137,152,120,123,167,117,127,124,128,167,126,122,119,127,130,124,111,91,121,120,87,111,117,120,138,75,122,118,169,123,127,135,115,152,122,123,165,121,120,114,120,162,114,122,99,103,118,157,97,98,127,122,95,131,128,121,119,68,125,117,150,112,114,118,125,147,119,119,152,121,119,122,113,161,120,121,102,117,120,119,124,98,128,116,81,124,122,122,118,78,105,118,142,146,123,118,121,140,94,121,158,122,126,106,117,163,116
122,95,117,121,110,99,97,125,120,88,140,126,122,123,81,120,121,134,121,119,125,128,151,126,123,144,117,116,147,110,165,117,118,86,127,124,112,118,93,115,116,98,121,117,114,131,74,118,125,135,122,116,77,144,149,121,118,139,119,123,117,122,162,128,117,64,116,117,111,106,89,114,127,90,140,127,131,128,82,123,121,146,118,121,141,133,159,125,118,149,111,115,129,136,157,124,123,87,124,126,123,128,91,121,111,51,113,122,123,115,75,101,122,143,113,117,119,120,153,129,122,155,115,115,116,117,161,115
120,75,123,119,116,121,95,118,120,67,123,120,122,97,77,120,119,130,116,118,109,110,152,135,124,172,127,120,122,129,163,133,120,78,112,118,142,107,86,82,119,68,135,123,153,106,99,168,132,161,156,139,124,139,148,111,123,197,125,119,116,128,169,147,115,107,104,135,147,118,91,105,119,77,117,122,97,116,81,120,127,160,115,119,164,119,150,127,120,186,124,120,124,130,166,115,122,92,138,123,117,107,85,119,122,59,113,125,121,132,87,121,118,146,130,124,132,113,145,123,122,170,106,110,88,146,165,132
119,78,127,136,122,124,88,116,123,61,111,111,117,132,80,117,113,150,119,120,121,115,156,122,126,179,125,120,135,110,157,118,121,103,115,124,120,133,100,147,119,82,120,123,130,121,79,99,119,153,112,116,117,136,151,116,123,197,120,127,128,104,177,130,123,111,111,115,99,138,89,147,117,83,122,118,103,77,78,116,123,139,95,106,125,125,158,133,123,170,127,117,111,139,158,109,127,81,119,122,136,70,90,134,111,78,105,117,128,129,92,122,117,153,128,119,103,129,143,97,130,174,104,122,134,128,168,130
119,95,145,130,116,95,91,132,123,62,124,123,121,113,82,106,123,139,113,118,123,117,148,116,115,175,120,125,117,152,162,104,129,90,120,124,136,125,88,134,120,57,128,128,125,120,86,121,124,146,124,128,121,122,154,116,123,180,121,123,121,123,156,123,123,66,113,120,129,119,93,123,119,0,124,122,121,123,86,126,116,67,121,121,115,119,155,111,123,152,124,121,122,120,158,122,124,83,121,117,126,111,86,128,120,59,117,131,118,127,84,118,122,157,117,116,135,132,153,131,119,240,123,123,121,127,158,116
121,236,119,121,120,140,94,114,117,209,115,124,124,122,83,113,120,240,120,119,107,118,149,136,124,242,114,121,125,114,155,121,121,124,126,123,120,121,111,121,119,75,120,121,122,123,121,117,121,141,123,119,111,130,184,117,122,150,121,117,132,120,176,120,122,58,119,122,120,122,124,120,118,53,118,117,120,123,167,119,118,134,125,126,108,109,123,118,122,163,121,114,119,130,113,120,120,113,116,121,119,120,114,121,120,105,124,119,116,107,101,121,120,143,119,126,121,119,108,120,121,151,118,128,121,123,107,120
120,164,122,122,121,120,95,120,118,145,121,121,121,120,94,120,120,209,114,123,121,122,104,119,123,164,120,125,122,123,111,121,121,92,125,118,119,121,106,121,118,94,120,124,120,120,101,119,122,155,116,121,131,118,124,121,119,148,117,121,119,121,113,118,120,98,123,122,119,119,112,119,120,144,121,122,123,131,113,121,120,132,120,120,121,122,127,120,121,92,122,120,120,120,115,119,120,68,121,125,123,120,110,121,119,63,122,122,120,120,119,119,122,99,121,117,120,122,128,120,120,82,122,122,121,122,123,119
120,76,120,118,120,119,117,120,121,93,119,130,123,121,119,120,118,123,119,121,119,121,125,119,122,112,133,133,122,123,121,121,121,100,118,115,120,119,118,120,120,122,114,131,122,123,126,119,122,143,126,117,121,118,114,120,120,121,120,109,119,124,150,121,119,106,123,143,128,119,71,115,122,119,121,117,121,127,195,129,120,128,118,116,118,117,113,120,121,118,122,128,120,118,121,119,121,111,121,130,120,121,118,120,118,117,117,119,121,120,123,120,119,128,122,120,119,120,126,121,120,116,120,128,123,121,128,119
119,113,124,122,120,120,106,119,119,120,116,123,124,120,107,121,118,125,114,119,120,120,128,117,125,132,131,128,127,129,135,131,121,129,117,119,118,113,68,122,117,121,118,122,118,115,103,115,119,140,123,120,123,123,138,125,120,116,111,95,110,109,104,108,123,115,136,152,132,128,159,127,120,108,117,122,124,120,121,122,121,117,114,121,122,127,180,127,121,114,131,121,119,118,111,119,120,120,122,130,122,119,106,119,121,132,121,121,126,121,111,121,119,125,119,117,117,119,111,116,121,112,123,123,119,125,141,122
121,117,121,123,123,119,102,122,119,130,120,120,120,114,101,110,127,138,123,125,124,133,99,131,119,125,120,123,116,121,129,113,119,111,119,121,118,112,82,114,119,122,121,117,123,117,123,118,120,123,119,122,119,120,123,121,122,112,119,122,116,119,113,120,120,110,127,122,122,119,116,119,119,109,120,118,124,120,111,118,121,114,121,120,117,121,123,121,121,116,123,123,117,121,120,121,121,112,121,123,123,121,113,121,120,120,122,121,124,120,118,120,119,122,125,121,119,121,128,118,121,116,119,122,115,117,97,118
122,120,123,121,127,128,128,127,118,118,122,122,125,119,106,117,122,122,121,121,117,120,132,122,122,119,122,122,116,120,127,120,120,119,121,123,124,120,121,119,120,123,121,122,125,120,95,120,121,123,121,121,119,123,138,121,121,121,122,123,116,120,118,119,121,123,122,122,123,119,113,119,120,128,120,121,124,121,119,120,122,122,118,119,117,122,127,120,122,120,123,122,119,122,125,122,121,117,121,124,125,120,113,119,119,122,120,121,125,121,119,119,121,122,121,125,117,121,131,119,120,120,120,121,116,121,130,116
122,123,124,123,124,122,129,129,121,126,119,114,124,122,145,122,121,124,123,126,116,116,114,117,119,117,121,120,117,120,123,119,121,116,121,124,123,119,114,120,121,122,121,122,124,121,116,121,119,121,122,121,118,120,125,120,120,119,121,124,118,122,119,120,121,117,121,123,125,121,118,119,121,122,121,120,123,119,116,120,121,123,121,121,118,121,128,121,121,120,122,122,119,121,122,121,122,116,122,123,125,121,116,121,119,122,120,121,124,119,117,119,121,121,120,120,118,121,129,121,121,122,122,122,119,122,126,120
121,119,121,122,123,119,115,120,119,121,120,121,125,119,110,119,120,123,121,121,118,121,104,118,122,121,122,123,120,130,169,132,121,118,121,122,124,121,112,119,120,124,119,122,124,119,96,120,122,122,120,120,118,121,126,121,121,122,121,122,116,120,124,122,121,119,120,122,124,120,116,120,120,123,120,122,124,121,120,120,122,123,121,121,118,121,127,120,121,119,121,122,118,122,123,121,120,120,122,123,124,121,114,121,120,123,120,121,124,121,116,119,119,123,121,121,117,121,128,120,122,121,121,121,117,121,122,121
120,120,122,123,125,122,115,119,119,122,120,121,124,120,121,119,122,123,122,121,118,122,125,121,121,118,120,122,116,118,114,119,120,120,121,123,126,123,118,121,120,124,121,121,123,119,118,119,121,123,121,121,118,119,121,119,122,122,123,124,120,126,122,122,120,119,121,123,124,119,114,119,120,123,121,121,124,120,118,120,121,123,121,121,119,121,128,119,121,120,121,123,119,121,122,120,120,119,121,123,123,120,111,119,120,123,121,123,124,122,118,124,119,121,121,121,118,121,128,118,121,119,120,121,118,121,119,121
121,120,122,123,124,121,120,120,120,124,120,121,123,120,120,120,120,123,121,121,117,120,126,120,124,120,122,122,117,121,120,120,120,119,121,123,125,120,116,119,119,121,120,122,124,120,122,119,119,121,120,120,118,121,127,119,122,120,122,121,118,122,124,122,121,119,121,123,124,121,114,120,120,124,121,122,124,120,119,120,119,122,120,120,119,121,125,120,121,120,122,123,120,121,121,120,121,120,121,123,124,120,116,120,121,123,121,122,124,122,128,121,119,123,120,121,119,122,128,122,121,120,121,122,119,121,124,120
121,119,120,122,122,120,117,120,119,121,120,121,123,121,122,119,120,124,121,121,117,121,124,119,121,120,121,123,119,122,132,121,122,120,121,123,124,120,110,120,119,122,121,122,122,121,123,118,120,123,121,119,119,120,124,119,121,119,120,123,120,122,124,121,122,121,122,123,123,120,115,120,119,122,121,122,124,120,119,119,120,121,120,121,121,121,127,120,121,121,121,122,120,122,123,121,120,120,121,123,125,121,115,122,120,123,121,122,124,120,117,120,121,123,121,121,119,122,128,121,119,120,122,122,119,121,121,120
123,121,122,123,123,120,115,121,118,122,120,122,123,121,119,120,119,121,120,120,119,121,126,118,121,120,121,122,120,122,123,119,122,121,123,123,124,122,123,124,120,123,121,122,124,123,118,119,119,121,120,121,119,120,126,118,121,119,121,122,120,121,124,121,120,119,121,123,123,121,115,120,118,122,120,121,123,121,121,119,119,123,121,121,119,121,128,119,123,123,122,123,119,120,122,121,120,119,121,123,124,121,116,120,119,122,121,121,123,121,120,120,120,122,121,120,119,122,128,120,121,122,122,122,119,119,117,121
121,120,121,123,125,124,119,121,120,122,120,120,122,120,122,120,120,123,121,121,119,122,124,118,123,122,122,122,119,120,129,122,121,121,121,122,123,120,113,121,119,121,120,121,123,120,120,120,121,122,121,121,119,122,129,120,120,119,121,123,120,122,119,121,122,120,122,122,123,119,114,121,119,122,119,121,122,120,121,120,121,123,121,121,119,121,131,120,123,119,121,122,119,121,121,120,120,120,121,123,124,120,114,120,117,122,120,121,123,121,114,117,119,123,120,121,119,121,124,120,122,120,122,122,119,122,123,121
121,120,122,124,123,119,115,121,119,121,120,122,123,122,123,119,119,123,121,121,119,121,126,119,122,120,122,123,119,122,123,121,121,120,121,123,124,121,115,121,117,122,120,121,124,121,120,119,119,123,121,121,120,121,126,119,121,121,121,122,119,122,123,120,122,120,121,123,124,120,116,121,119,123,121,121,122,119,120,120,120,123,121,120,119,121,127,119,121,121,121,123,120,122,120,121,122,120,121,123,124,121,115,120,121,123,120,121,123,121,123,121,119,123,121,121,119,121,127,119,120,119,121,122,120,122,120,119
121,119,122,123,122,120,113,121,121,123,121,121,122,121,124,120,118,122,121,121,119,121,128,119,121,120,121,122,120,121,119,119,121,121,122,124,123,120,117,121,120,123,120,121,121,120,121,120,119,123,120,121,120,122,126,119,121,120,122,123,120,121,116,120,121,120,122,124,124,121,116,120,120,122,121,122,124,125,136,122,119,124,120,119,117,119,122,118,122,121,122,122,119,120,120,121,121,121,121,124,124,121,113,120,120,123,121,122,123,121,119,120,119,123,120,120,119,121,124,119,123,120,122,123,120,120,120,121
119,119,122,124,124,120,115,120,122,123,119,121,122,121,121,120,119,122,120,121,119,122,129,119,122,120,122,122,119,120,118,120,121,120,122,124,123,120,110,120,119,121,120,121,122,121,123,119,119,122,120,121,119,122,128,120,121,120,121,122,120,122,121,120,122,120,121,122,124,121,115,121,119,122,121,122,123,122,121,119,120,124,121,120,119,121,128,120,122,120,121,122,120,122,121,120,121,119,121,123,124,121,116,121,120,122,121,121,122,120,121,120,119,123,120,120,119,120,125,120,121,120,121,122,120,122,123,120
121,121,122,123,124,121,117,120,119,121,121,121,122,120,122,119,119,123,120,120,119,121,130,119,121,121,122,122,120,122,123,122,121,119,121,124,124,121,116,120,120,122,121,122,122,120,118,119,118,123,120,120,118,120,128,119,122,121,120,121,120,120,119,120,122,119,121,123,124,121,118,121,120,123,121,121,122,120,120,120,119,123,120,120,117,120,127,119,124,119,121,122,120,120,115,120,121,120,121,123,124,122,127,122,121,122,120,121,122,121,118,120,118,124,119,119,118,121,128,119,120,119,121,122,120,121,121,121
122,121,122,123,123,119,111,121,121,123,120,120,122,121,125,120,121,124,121,121,118,120,126,119,119,119,120,122,120,121,121,120,123,119,122,124,124,120,113,122,121,122,120,121,121,121,121,120,120,123,121,121,120,122,123,120,121,120,122,123,120,120,117,120,122,121,123,124,124,123,131,124,119,122,121,121,121,119,118,118,119,122,120,120,118,121,125,119,121,121,121,121,119,120,119,121,122,120,122,124,124,121,120,121,119,121,121,121,122,120,118,119,119,123,121,120,118,120,126,119,121,119,121,122,120,121,121,121
122,120,122,124,123,120,114,121,120,122,121,121,120,120,122,120,120,124,120,119,118,121,127,119,120,119,121,122,120,121,121,121,122,121,121,123,124,120,113,121,121,123,120,121,123,123,127,121,118,122,120,120,118,120,125,118,120,121,121,123,120,121,120,120,121,120,122,123,124,121,115,121,120,122,121,122,123,121,122,120,119,123,120,120,119,120,123,118,122,121,122,123,121,122,122,122,123,119,121,123,124,121,116,122,119,122,121,122,123,120,119,119,119,122,119,120,119,121,127,119,121,121,122,122,120,120,124,121
122,119,121,123,124,121,111,122,120,122,120,120,122,120,120,119,118,122,120,120,119,122,130,119,121,120,122,123,121,122,121,120,121,120,122,124,125,121,114,122,120,122,121,121,121,121,121,120,119,123,121,121,118,121,129,119,121,120,121,123,121,121,119,120,122,120,122,124,125,121,115,120,118,121,121,121,122,120,120,119,120,122,120,121,119,122,130,119,119,120,121,122,121,122,123,121,122,120,123,124,123,120,114,122,117,122,120,121,122,121,121,119,119,123,120,120,118,121,128,119,122,120,120,120,116,125,121,120
121,120,121,122,115,131,116,122,119,122,121,122,120,128,121,119,118,123,119,117,102,113,127,117,122,120,120,119,122,92,122,122,122,121,123,125,124,122,119,122,120,122,121,121,122,120,121,120,119,123,120,120,117,122,127,118,121,121,122,123,120,123,119,121,122,120,121,124,123,121,116,122,120,123,121,121,121,121,123,120,119,122,120,120,118,122,126,118,122,121,121,122,120,121,121,121,120,119,120,123,124,120,115,122,120,121,120,121,122,121,122,119,117,123,120,120,118,121,128,118,124,121,121,122,121,123,121,124
121,119,121,123,123,120,116,121,120,122,121,121,121,121,123,121,120,123,120,120,118,121,129,120,121,120,122,123,121,121,120,121,122,120,122,123,123,120,114,122,119,122,121,121,120,119,120,119,119,124,121,120,117,121,134,121,121,121,120,122,121,121,118,120,122,118,121,123,124,120,112,121,119,123,121,122,123,122,124,120,120,123,120,120,118,122,129,119,122,121,121,122,120,121,121,121,122,119,121,124,125,120,115,122,116,123,120,121,122,121,122,120,120,122,119,119,117,120,127,119,120,120,121,123,121,122,121,120
123,120,122,124,125,120,113,121,118,121,120,121,122,121,124,120,120,123,120,119,117,122,128,120,122,120,121,122,119,120,120,121,122,121,121,123,124,120,115,122,121,122,121,122,122,121,125,120,119,123,120,120,118,122,129,119,122,121,121,122,120,121,119,121,122,121,122,123,124,120,114,122,120,122,121,121,121,121,123,120,120,125,121,120,118,121,126,119,121,121,122,123,121,120,119,120,122,121,122,124,125,122,113,123,120,123,121,121,121,120,123,120,118,123,120,119,117,121,128,119,124,121,121,123,120,120,120,121
121,120,122,124,124,120,114,122,119,121,120,121,122,121,123,119,119,122,121,120,117,121,127,119,121,120,121,122,131,120,119,121,122,121,122,124,126,120,114,121,117,121,120,121,121,122,122,119,120,123,121,120,118,122,130,120,122,121,121,122,121,122,120,122,121,119,121,124,124,120,113,121,120,122,121,121,121,120,124,119,119,124,121,120,118,121,123,120,121,119,121,122,121,121,127,119,123,118,121,123,124,120,113,122,119,122,121,121,122,120,121,119,118,123,120,120,117,121,128,119,121,121,122,123,122,121,119,121
123,121,122,123,124,121,116,122,118,122,120,121,122,122,123,119,119,122,120,120,118,121,127,118,121,121,122,123,122,121,122,122,122,120,122,124,125,121,113,120,120,123,120,121,121,121,125,121,120,123,121,120,117,122,127,118,120,119,121,122,121,121,119,120,121,119,121,123,124,121,114,121,122,122,121,121,122,121,123,119,118,123,119,119,118,122,129,120,122,120,121,122,121,121,120,121,120,118,121,124,125,120,114,120,121,123,120,121,121,121,123,120,119,123,120,120,118,120,127,118,123,121,122,122,122,123,123,123
123,120,121,124,125,121,113,122,119,121,120,121,122,121,121,119,119,122,120,120,119,124,127,120,121,121,121,122,121,121,122,121,122,120,122,124,125,121,113,122,119,121,121,121,121,121,123,119,120,123,120,119,117,121,129,119,121,120,122,123,121,121,119,120,122,119,121,124,125,122,115,122,121,123,120,120,121,120,121,119,117,121,120,120,118,122,133,119,123,120,122,123,122,121,118,121,122,119,122,123,123,119,114,121,119,122,121,121,120,121,122,120,120,124,120,119,117,121,129,120,122,120,122,122,121,121,120,121
125,118,121,123,124,120,113,121,119,122,121,121,122,122,125,120,120,124,120,120,118,122,128,119,122,120,121,122,121,121,122,121,123,121,121,123,124,121,115,122,120,122,120,121,120,122,122,119,119,122,120,120,118,120,126,118,121,120,121,122,120,121,120,121,121,119,122,124,121,120,113,121,120,123,120,120,120,120,123,120,117,123,120,120,122,122,129,119,124,121,122,122,121,121,120,121,121,121,122,124,124,120,115,121,118,122,120,121,121,122,121,118,120,123,120,119,116,128,128,120,122,121,122,122,120,120,120,121
121,121,122,123,124,120,112,122,119,122,121,122,121,121,123,119,120,123,120,119,116,120,128,119,122,121,122,122,120,123,119,121,122,121,122,124,124,119,113,122,119,122,121,122,121,120,127,118,119,122,120,119,117,122,126,119,122,121,121,122,122,122,123,121,121,119,121,123,123,120,110,120,119,123,120,120,120,120,126,120,117,123,121,119,117,121,126,118,122,120,122,123,121,121,120,122,123,119,120,124,125,120,114,122,119,121,120,121,121,121,124,119,119,123,121,119,117,121,129,119,122,121,122,123,122,121,119,121
121,119,121,124,125,121,115,121,120,121,120,121,121,121,124,119,119,124,121,120,117,120,127,119,121,120,121,122,122,122,121,122,120,119,121,124,125,121,114,120,120,122,120,121,121,120,122,119,120,123,120,120,118,122,127,119,121,122,122,122,122,117,119,121,122,119,122,125,125,122,113,123,119,122,121,121,120,120,123,119,118,123,120,120,118,122,129,119,122,120,121,123,120,122,120,121,124,119,121,123,124,120,114,122,117,122,121,122,121,121,121,120,119,123,120,120,117,122,129,119,121,121,121,122,122,122,122,122
121,120,121,124,125,120,113,121,120,122,121,122,121,120,123,120,119,122,120,120,118,121,128,119,122,121,121,122,121,121,119,121,121,121,122,123,124,118,110,120,119,122,121,121,121,123,125,119,120,123,121,120,117,121,129,119,122,121,121,122,119,120,123,121,122,120,121,124,125,120,111,121,120,122,121,122,122,122,123,120,120,124,119,119,117,121,130,119,121,120,121,122,122,111,119,121,122,120,122,124,125,120,114,121,118,121,120,121,121,122,124,119,119,121,120,119,117,121,128,118,121,121,122,123,121,120,117,121
122,120,122,124,124,120,117,122,119,123,121,121,121,120,122,119,118,122,120,120,118,122,128,119,123,120,121,122,121,121,121,121,120,119,121,123,124,120,113,121,120,122,120,121,120,120,123,120,120,123,120,120,118,122,126,118,119,119,120,122,121,121,119,119,126,120,121,124,125,120,112,122,119,121,120,121,121,121,122,120,119,124,120,119,117,122,132,119,120,119,120,122,121,121,119,120,123,121,122,123,124,120,114,122,118,120,120,121,121,122,125,119,119,123,121,120,119,122,128,119,121,121,121,122,122,121,120,121
122,120,120,123,124,120,113,122,120,122,121,121,121,122,125,120,119,123,120,119,117,121,127,118,122,121,121,123,121,121,122,121,122,121,122,123,124,120,111,122,119,121,120,121,121,121,121,119,119,122,120,120,118,122,133,119,121,121,121,123,122,121,117,120,119,121,121,123,125,121,115,121,120,121,120,121,121,122,124,120,120,123,121,120,118,122,130,119,123,120,121,122,122,121,120,121,120,119,121,124,124,121,113,121,119,122,120,121,121,122,122,119,120,123,121,121,120,122,132,119,122,121,122,124,123,123,121,121
122,121,122,124,123,120,112,122,119,121,120,120,120,121,125,119,118,122,120,120,118,122,128,118,122,120,121,122,121,121,120,121,124,121,122,125,125,121,112,121,119,121,121,122,121,120,125,119,120,123,121,120,117,121,127,119,122,121,121,122,121,121,120,121,123,119,121,124,124,121,114,122,119,122,120,121,122,121,123,120,119,122,120,120,118,121,128,119,122,120,121,123,121,121,121,121,121,120,122,124,124,120,111,120,119,121,120,121,121,122,122,121,120,122,120,119,118,123,140,120,122,120,121,123,121,121,117,121
121,121,122,123,124,119,108,120,120,122,120,120,120,121,125,120,119,123,121,120,118,121,128,119,121,122,122,123,121,120,118,121,121,120,121,123,124,120,114,121,119,121,121,121,121,121,123,119,120,124,121,119,117,122,130,119,121,121,122,123,122,121,119,120,122,122,121,123,124,120,107,121,121,123,121,121,121,121,125,120,119,121,120,119,118,122,131,119,121,120,121,123,122,121,117,120,121,121,122,125,126,118,111,123,119,122,120,121,120,121,124,119,120,123,121,120,118,121,129,119,121,120,121,123,122,121,118,120
122,121,122,124,124,119,113,122,119,121,121,121,121,122,124,120,119,123,120,118,117,121,129,119,122,121,121,122,121,121,120,122,125,120,121,124,124,120,111,121,117,121,121,121,120,122,130,121,121,122,121,120,118,121,128,119,121,121,122,123,122,121,122,121,121,120,122,124,124,121,111,121,119,122,120,121,121,121,125,119,121,124,121,120,119,121,129,120,120,120,121,123,121,120,121,120,122,122,122,124,124,119,111,120,119,122,121,121,121,120,123,119,119,120,120,120,118,121,130,119,121,121,121,122,121,121,118,121
121,121,121,124,124,120,115,121,121,123,119,121,124,120,122,119,119,122,120,120,118,121,130,119,120,121,122,122,121,120,118,121,122,119,121,124,125,120,110,121,120,122,121,122,121,123,126,120,120,123,120,119,115,122,132,120,121,119,120,122,120,121,118,120,122,120,121,123,123,121,112,122,120,122,121,121,120,121,123,119,119,122,121,120,119,122,131,119,123,122,122,122,120,120,118,121,119,118,121,124,123,120,113,121,121,122,121,121,122,122,126,120,120,123,121,119,118,121,129,119,122,121,121,122,122,120,118,121
121,121,122,123,126,121,113,121,120,123,120,122,122,121,124,120,120,122,120,119,118,122,131,119,121,121,121,123,123,122,118,121,122,120,122,124,125,120,111,121,120,122,120,120,121,121,124,119,120,123,120,119,117,122,130,119,121,119,120,123,122,121,118,121,122,123,124,125,124,120,112,121,119,122,121,121,121,122,123,119,119,121,117,118,117,121,131,118,121,123,121,123,121,121,118,122,122,120,122,123,124,121,114,121,121,126,119,121,120,120,123,119,118,121,120,118,116,120,130,118,121,122,122,122,121,121,112,121
122,121,123,124,124,120,115,122,121,122,121,121,121,122,124,120,119,123,120,119,118,121,128,119,122,122,121,122,121,120,117,121,121,119,121,124,125,121,115,121,120,121,121,121,119,119,120,119,119,122,120,119,118,123,142,121,123,121,121,122,122,120,117,121,121,120,121,124,124,119,107,120,120,122,121,121,120,121,122,120,120,124,121,120,119,122,130,119,121,121,122,123,122,120,115,121,121,120,122,124,123,121,115,121,119,122,121,121,121,120,121,119,120,122,121,120,118,121,130,119,121,120,121,123,122,121,119,121
122,120,121,124,124,120,110,121,119,122,120,120,120,121,124,119,120,124,121,120,119,123,132,119,121,120,122,123,121,120,118,121,122,121,122,123,123,119,111,121,119,122,120,120,120,121,125,120,119,122,119,120,119,122,132,119,122,121,121,122,122,121,119,122,120,119,119,123,124,120,111,120,119,124,121,121,121,122,124,119,120,122,121,120,118,121,131,119,121,121,122,123,122,120,118,120,122,121,120,124,123,120,112,122,119,122,120,121,120,121,124,120,119,122,120,120,119,123,131,119,122,120,121,122,121,120,115,120
121,120,122,124,124,120,114,122,120,122,120,121,121,121,123,119,120,122,120,119,118,122,131,120,121,120,121,123,122,121,118,121,122,120,121,123,123,120,112,121,120,123,120,120,120,122,123,121,120,124,121,120,119,121,130,119,120,121,121,123,122,121,119,120,121,120,121,124,124,120,111,120,120,122,121,121,120,121,125,120,118,123,120,119,118,121,130,118,122,121,122,122,121,121,119,122,120,120,121,124,124,120,111,120,120,120,120,122,122,122,125,120,120,124,121,119,118,122,130,119,120,119,120,122,121,120,119,120
120,120,121,124,124,121,109,120,120,122,120,121,121,122,124,119,120,123,120,119,118,121,133,119,121,121,121,122,121,121,119,120,121,120,121,123,124,120,111,121,122,122,120,121,120,120,123,118,116,124,122,119,117,121,131,120,123,121,122,123,122,121,116,120,122,120,121,123,124,122,123,123,120,123,121,121,120,121,123,120,120,123,121,120,118,121,129,119,120,120,122,123,122,120,117,120,121,118,121,123,123,120,115,121,121,123,121,122,121,121,123,120,120,122,121,120,118,121,132,120,121,122,121,122,122,121,117,120
121,120,121,125,124,120,110,120,120,122,120,120,120,121,127,120,121,123,122,120,119,122,131,119,120,120,121,123,122,121,122,121,120,119,121,124,123,120,104,121,120,123,122,122,122,123,127,118,121,123,120,119,118,121,130,120,118,119,121,123,121,120,116,120,122,120,122,124,123,120,109,120,121,123,121,121,121,122,126,120,120,124,121,120,119,122,130,120,120,119,121,123,122,120,117,120,121,120,121,124,124,119,108,120,120,123,121,121,120,121,125,119,121,123,120,119,119,122,131,120,121,122,122,122,121,121,116,121
119,120,121,124,123,121,113,123,119,121,121,121,121,121,124,118,120,122,120,120,119,122,132,119,122,121,122,122,121,121,118,121,122,121,122,124,124,121,113,121,119,121,120,120,120,121,122,118,119,122,120,119,119,122,132,120,121,121,121,122,121,121,118,121,121,120,122,124,124,120,115,122,119,122,120,121,121,122,125,119,120,122,121,121,119,121,131,119,120,120,121,122,121,120,117,120,121,120,121,124,123,121,113,121,121,123,120,120,120,121,125,121,119,123,121,120,120,123,132,119,120,119,121,123,122,121,118,120
122,121,121,124,123,120,115,121,120,122,120,120,120,121,123,120,121,123,121,120,119,122,131,119,121,120,121,123,122,121,114,119,121,120,121,124,124,121,118,121,120,122,121,121,119,119,121,119,121,123,120,120,119,122,130,119,122,122,121,123,122,121,117,120,120,120,121,123,123,120,111,121,119,122,121,122,120,120,125,119,120,123,121,120,120,122,132,119,122,121,121,123,122,120,111,121,121,120,122,124,123,119,112,122,119,122,121,121,120,121,125,119,120,123,121,120,120,122,130,120,123,122,121,122,122,121,118,120
121,122,121,123,123,120,111,123,119,121,120,121,121,121,124,119,120,124,121,119,118,122,129,119,122,122,122,122,122,121,116,122,124,119,120,123,123,120,110,120,118,121,121,121,119,120,125,120,120,122,122,120,120,123,133,119,118,120,121,123,122,121,117,120,123,121,121,123,123,120,111,121,119,123,121,121,120,122,126,120,121,122,120,120,119,122,134,120,120,122,122,123,121,120,117,121,121,119,120,124,123,120,111,120,121,122,120,121,121,121,120,120,120,123,120,119,119,122,133,120,121,121,120,122,122,120,118,121
122,120,122,124,122,119,110,122,120,122,120,122,120,121,125,119,120,123,120,119,119,123,132,119,122,121,121,123,122,120,118,121,121,119,121,124,123,121,111,123,120,124,121,120,120,121,124,120,120,124,121,120,119,122,135,119,121,121,121,122,122,121,111,121,121,119,121,124,123,120,117,120,120,122,121,121,120,120,122,119,121,124,122,120,120,124,135,121,121,120,122,123,121,120,116,121,122,121,121,123,122,119,111,121,118,121,120,121,121,122,124,120,120,123,121,120,120,123,130,120,122,120,121,123,122,122,118,119
121,120,120,123,123,120,109,121,119,122,120,121,121,121,122,119,120,122,121,120,119,122,135,119,122,122,121,122,121,121,118,120,121,120,121,124,122,119,111,121,120,122,120,121,120,122,124,120,120,123,121,120,119,121,131,119,120,120,121,122,122,121,117,120,121,120,120,123,122,119,111,121,120,123,122,122,122,123,132,120,120,122,120,119,119,122,132,120,121,121,122,123,122,121,115,120,121,120,119,122,122,120,114,121,119,121,121,121,121,121,124,118,121,122,121,121,120,122,132,120,122,122,121,122,121,120,116,121
120,120,121,125,123,121,116,122,120,121,120,120,120,121,122,119,122,123,121,119,118,121,128,119,121,121,121,123,122,121,121,123,121,120,121,123,123,120,113,121,120,123,121,121,120,121,125,120,119,122,120,119,119,122,130,120,122,121,121,123,122,120,118,121,121,120,120,123,123,120,108,120,120,121,120,121,120,121,127,119,121,124,121,120,119,122,130,120,120,120,122,123,122,122,119,122,122,120,121,123,122,119,112,122,120,122,120,121,120,121,124,120,120,123,121,120,119,121,130,120,121,119,120,123,122,121,119,121
120,119,120,123,123,119,110,121,120,122,121,122,121,121,124,119,121,123,121,120,119,123,137,121,121,121,121,122,122,120,114,122,121,120,121,124,123,120,112,121,119,122,120,121,120,122,124,119,120,122,119,119,119,122,130,120,121,120,121,122,122,121,119,121,121,121,121,124,123,120,111,120,119,121,120,121,121,122,126,120,122,124,121,120,119,123,134,121,121,120,121,123,122,121,118,120,120,120,120,123,123,119,107,119,120,122,120,121,120,121,132,120,121,123,121,120,119,122,130,119,122,121,122,123,122,120,115,120
120,121,121,124,123,119,112,121,120,123,121,121,121,123,123,118,120,123,121,121,120,122,131,120,121,120,121,121,121,120,118,121,120,120,122,123,122,119,112,122,123,122,121,121,121,122,126,119,118,122,120,120,119,122,131,119,121,121,121,122,121,121,119,121,120,121,121,123,122,120,111,120,123,123,120,121,120,122,126,119,119,122,121,120,120,123,131,119,121,120,121,123,122,120,116,120,121,120,121,124,124,119,111,121,119,123,121,121,121,121,125,119,121,124,121,120,119,122,130,120,121,122,121,122,121,120,116,121
122,120,121,123,122,121,116,121,120,122,121,121,121,121,124,120,121,123,122,121,119,121,130,121,119,120,121,123,122,121,117,119,120,121,121,124,123,120,111,120,122,123,120,120,120,121,126,120,120,122,120,120,120,122,131,120,120,121,122,123,122,121,114,121,121,121,121,123,122,120,117,121,120,122,120,121,121,121,121,121,120,123,121,121,120,122,132,119,120,120,121,122,122,120,116,119,121,121,121,124,122,119,112,121,120,121,120,121,121,121,127,121,119,122,120,122,120,122,130,119,124,119,120,122,122,121,115,120
122,122,122,123,123,121,117,122,119,122,120,120,120,121,124,119,120,123,121,120,119,121,128,119,122,121,122,123,122,121,118,120,120,120,121,124,123,120,112,121,121,122,120,120,120,121,123,121,119,123,120,120,119,122,134,120,122,121,121,123,121,120,117,119,119,119,120,123,123,120,110,119,121,123,121,121,120,121,127,120,120,123,122,120,119,122,130,120,121,121,121,123,122,120,115,120,121,120,121,124,123,120,111,119,120,122,121,121,120,121,127,121,121,122,120,120,120,123,132,120,121,120,120,122,121,120,118,121
121,120,121,123,123,120,110,120,121,123,121,121,121,122,125,119,120,122,120,120,120,123,132,121,120,119,121,122,122,121,115,120,121,120,121,124,123,119,111,120,120,123,121,122,120,120,122,120,119,122,121,121,120,122,130,119,121,121,121,123,122,120,116,120,122,120,121,124,122,120,113,121,119,122,121,122,121,122,128,120,121,123,121,119,119,121,130,121,120,121,121,123,122,121,116,120,121,121,121,124,123,120,110,121,120,123,121,122,121,122,126,119,121,122,121,121,120,122,130,119,121,122,122,123,121,120,116,121
121,120,120,123,122,120,113,121,121,122,120,121,121,122,121,121,121,123,122,121,120,122,131,120,121,121,122,123,121,120,118,121,120,120,120,123,122,120,113,120,120,122,121,121,121,122,126,119,120,123,121,121,120,122,129,120,120,119,120,122,122,123,117,120,121,121,121,124,123,118,111,120,120,121,121,121,120,122,125,119,120,122,120,119,118,120,130,119,121,121,120,122,122,119,114,121,121,121,120,123,122,121,113,121,120,121,120,121,121,122,123,121,121,122,120,120,119,122,128,120,121,121,121,123,122,119,116,120
120,120,121,123,123,125,112,120,121,122,120,121,120,120,126,121,119,122,121,121,119,122,130,119,120,120,121,122,122,121,118,120,120,120,121,123,123,120,112,120,121,123,120,121,121,122,127,120,121,123,122,119,119,121,131,121,121,120,121,122,122,121,116,121,121,121,121,123,123,120,111,120,119,121,121,122,121,121,123,119,118,120,120,119,119,121,131,118,123,123,122,122,121,121,119,123,121,122,122,124,123,121,112,123,123,122,121,121,120,122,126,120,117,122,121,121,120,123,129,119,122,121,121,123,121,120,118,120
120,119,120,123,122,119,110,120,120,121,120,120,120,121,126,120,119,123,120,121,120,122,129,119,123,121,123,123,122,122,122,122,118,119,118,122,122,120,109,118,121,123,122,121,121,120,126,121,123,125,129,122,120,121,131,122,118,118,119,121,122,123,116,119,122,120,117,122,121,116,110,122,121,123,126,121,121,124,129,121,120,121,119,120,120,121,129,119,123,122,125,123,121,118,116,122,120,120,121,128,123,119,111,121,120,122,121,121,121,122,125,120,121,123,120,119,119,120,130,119,121,120,121,122,122,120,116,120
120,120,120,120,124,120,111,119,120,123,121,122,120,122,126,120,121,123,120,117,119,122,131,120,121,121,121,124,121,121,118,121,120,121,120,122,123,120,113,120,120,122,120,120,120,121,123,119,122,123,121,120,119,122,130,121,121,122,122,124,123,121,117,121,120,119,120,123,122,119,110,119,120,121,120,121,120,122,127,120,122,122,120,120,119,122,129,119,121,120,121,123,122,121,117,121,120,121,121,123,123,120,112,121,121,123,120,120,120,121,127,122,121,122,121,121,120,123,130,119,121,121,121,122,122,121,117,121
119,120,121,122,122,122,112,122,120,122,120,120,120,121,126,121,121,123,121,120,119,122,130,120,121,121,121,123,122,119,119,121,120,120,121,123,122,120,112,120,120,122,121,121,120,120,124,119,121,122,121,120,120,123,141,122,120,120,121,122,122,118,115,120,121,121,121,123,122,120,113,121,120,123,121,121,120,121,126,120,122,123,120,120,120,123,131,120,119,119,120,122,122,122,121,121,121,122,122,124,122,119,113,121,120,122,121,122,121,121,124,119,119,121,121,120,120,122,130,119,121,121,122,123,122,121,115,121
121,121,121,122,122,120,113,121,120,122,120,120,120,119,126,120,120,122,121,120,119,123,131,120,121,121,121,123,123,124,117,120,120,121,120,122,122,118,114,120,120,121,121,121,120,120,127,119,120,122,121,121,120,122,129,119,121,120,121,123,122,125,118,120,121,121,121,123,123,120,113,121,120,122,122,121,120,121,126,120,121,122,121,120,120,123,130,120,123,121,121,123,122,121,114,120,120,120,121,123,122,120,114,123,120,121,121,121,120,121,123,118,122,123,121,121,120,123,131,122,121,121,122,123,123,121,116,120
120,121,121,122,121,119,112,120,120,123,121,121,120,122,125,120,121,121,121,121,120,124,130,120,120,119,120,122,121,121,117,120,121,120,121,123,122,119,112,121,120,123,121,121,120,121,126,119,122,123,121,120,119,121,125,121,122,122,121,122,121,121,119,122,120,120,121,122,122,121,116,121,121,122,121,121,120,122,126,119,121,123,122,120,119,121,128,120,121,121,121,122,121,120,117,121,119,119,120,123,122,120,115,120,121,122,121,120,120,122,123,120,119,120,120,120,120,122,129,119,120,122,122,123,122,119,116,121
122,121,121,124,124,121,119,120,120,122,121,121,121,122,123,121,121,122,121,120,120,122,132,120,122,120,120,122,121,120,115,120,120,121,120,122,122,120,113,121,119,122,121,122,121,121,123,119,120,122,121,120,120,123,132,120,120,121,121,122,122,118,118,121,119,120,121,123,122,120,113,119,121,121,120,121,121,121,126,121,120,123,122,121,119,121,129,119,120,121,121,123,122,121,117,120,119,119,120,123,122,121,113,119,120,122,120,120,120,122,126,120,121,123,121,120,120,122,130,121,121,121,121,122,121,120,116,121
121,121,121,122,122,120,114,121,120,122,120,120,120,121,124,119,121,123,122,120,119,121,129,120,121,121,122,122,121,121,117,121,120,120,120,123,123,120,113,120,120,124,123,121,120,121,125,120,121,121,121,120,120,122,130,120,121,120,120,123,122,121,117,121,120,119,120,123,122,120,114,120,121,123,122,121,121,121,125,119,121,122,121,121,120,122,129,120,120,120,121,122,121,120,117,121,121,121,121,123,123,121,113,120,121,122,120,121,121,122,126,120,120,122,121,121,120,123,129,120,121,121,121,122,121,122,118,120
121,122,121,122,122,119,111,120,120,122,121,122,120,121,126,119,121,123,121,119,119,122,129,120,120,120,121,123,122,121,118,120,120,122,120,123,122,120,115,121,121,123,120,121,120,121,131,120,120,122,122,121,120,122,129,120,119,118,120,122,121,119,116,120,121,122,120,122,122,120,112,120,121,123,122,121,120,121,125,122,119,122,121,121,120,122,126,119,119,119,121,123,122,121,116,120,120,120,121,123,123,120,114,119,122,123,120,120,120,121,124,120,122,123,122,120,119,121,128,120,120,121,121,124,123,121,116,120
118,119,120,122,122,121,115,121,121,122,121,122,120,121,125,120,120,122,121,121,120,122,127,119,121,121,121,123,122,120,116,120,119,120,121,123,123,120,115,120,121,122,121,121,119,120,126,120,120,121,122,121,121,123,128,120,120,120,121,122,122,121,117,121,120,120,119,122,123,119,117,121,121,122,120,120,120,120,122,120,120,121,121,120,120,123,129,122,122,121,120,122,122,121,118,120,120,121,121,123,123,120,114,120,120,122,120,120,120,121,125,119,121,122,121,121,120,123,129,121,122,121,121,123,122,120,117,120
120,121,121,122,122,119,114,121,121,123,121,121,120,121,125,120,120,122,121,121,120,122,127,120,121,120,121,123,122,121,118,120,120,121,121,123,122,119,113,119,121,121,120,121,121,122,126,121,120,122,120,120,120,122,129,121,122,121,122,123,122,120,116,120,120,121,121,124,123,120,114,120,119,122,121,121,121,121,125,119,121,123,121,121,120,122,128,120,122,121,122,123,123,122,119,122,120,120,120,122,122,120,116,120,121,121,120,121,120,121,125,121,121,123,120,120,120,122,127,120,121,121,121,123,122,121,118,122
119,120,121,123,123,120,114,119,119,121,121,121,121,121,124,119,122,123,121,120,119,121,128,121,121,121,121,122,122,121,116,120,121,121,120,123,122,120,113,121,120,121,120,121,121,121,125,119,122,122,121,121,120,122,127,119,121,122,120,122,122,121,118,121,119,121,121,123,123,121,115,119,120,122,121,121,120,121,124,120,122,122,121,120,120,122,129,121,120,119,120,122,121,120,115,121,120,121,121,123,123,120,115,119,120,122,121,121,121,121,124,119,122,122,122,120,120,122,128,121,121,121,121,122,122,122,117,120
121,121,121,123,122,120,116,121,120,121,120,121,120,121,125,120,121,122,121,120,120,122,128,121,121,121,121,123,123,121,118,120,120,121,121,123,122,120,114,120,120,121,121,121,120,122,124,119,123,122,121,120,121,122,128,122,120,120,120,122,122,121,115,121,120,121,121,123,122,120,115,119,121,121,120,121,120,122,126,120,120,123,121,121,120,123,129,121,121,121,122,123,123,121,117,120,121,120,121,123,122,120,115,120,120,120,119,120,119,121,125,120,121,122,121,121,120,122,127,121,121,122,122,123,122,120,117,120
119,120,120,123,123,120,115,119,120,121,122,122,120,121,126,120,121,122,121,121,121,122,127,120,123,121,120,122,122,120,116,121,117,120,120,123,122,119,116,119,120,122,121,121,121,122,125,120,122,122,121,121,120,122,126,119,121,121,121,122,121,120,119,122,120,121,121,123,122,121,117,120,122,122,121,121,120,121,126,121,121,122,121,120,120,122,125,120,120,120,121,122,122,121,118,120,119,120,120,123,122,120,114,118,120,122,121,121,121,121,124,120,121,124,122,122,121,122,128,121,121,121,121,123,122,120,117,120
120,121,121,122,121,120,116,120,121,122,120,120,120,122,125,120,122,122,121,121,121,122,128,122,118,119,120,122,122,120,117,118,121,120,121,123,122,119,114,119,120,122,121,121,121,122,126,120,121,123,122,121,120,122,126,120,120,121,121,123,122,121,117,119,121,120,119,122,122,120,117,122,120,122,121,121,120,120,122,118,121,123,122,121,120,122,127,121,120,121,121,123,122,120,116,120,121,121,121,123,123,120,115,120,120,122,121,120,119,121,125,119,123,121,122,121,120,121,126,120,121,122,122,123,123,122,118,121
120,121,121,123,123,120,115,119,121,122,121,121,120,121,124,120,122,122,122,122,120,122,126,121,122,122,120,122,122,121,118,121,119,121,121,122,122,120,116,120,121,121,121,120,119,120,126,119,121,122,122,121,120,122,129,120,121,122,122,123,123,120,115,120,119,120,121,123,122,120,117,120,120,123,121,121,121,121,125,119,121,123,122,122,120,122,126,121,120,121,121,123,122,120,116,120,121,122,121,122,122,120,117,121,121,123,121,122,121,121,125,121,122,121,121,121,120,122,125,120,122,121,121,122,121,120,117,121
120,121,120,122,122,120,116,120,120,122,121,121,120,121,124,119,122,123,121,121,120,122,127,122,121,121,121,122,121,120,117,120,120,122,120,122,122,121,116,119,119,121,120,121,121,122,125,120,122,121,122,122,120,122,126,120,125,121,121,123,122,119,116,121,117,119,120,122,122,120,116,119,121,122,120,121,120,122,126,120,121,121,121,121,121,122,125,120,119,120,121,123,122,121,117,120,120,120,120,122,122,121,118,120,122,122,121,122,121,123,126,120,121,121,121,120,119,120,126,120,119,120,120,123,122,121,119,120
119,121,121,122,121,119,112,118,121,122,120,122,119,119,119,120,120,120,118,116,119,122,131,121,122,121,123,119,122,122,132,124,116,119,118,117,116,111,91,114,123,124,123,137,130,131,198,117,122,122,123,123,124,130,118,135,120,121,125,121,112,120,96,113,119,121,122,136,129,109,80,114,122,121,120,120,117,113,71,114,129,123,123,112,126,117,147,130,110,111,107,125,146,100,83,114,119,123,132,128,127,119,99,118,115,119,120,115,112,125,155,103,128,118,115,115,122,129,69,123,130,146,137,100,126,136,223,143
105,119,130,136,139,143,141,104,133,121,115,131,110,128,197,140,123,114,126,125,106,105,92,100,128,116,118,109,122,150,223,159,113,106,110,123,111,93,103,102,121,95,117,127,122,138,108,124,123,70,130,154,109,114,144,119,124,55,130,100,134,144,213,137,117,1,114,114,133,97,30,113,116,0,129,105,121,118,129,110,116,0,120,123,103,116,130,111,133,0,121,123,136,175,144,145,113,0,115,117,127,90,8,104,127,0,124,117,121,135,121,134,123,0,132,118,109,141,148,110,120,11,122,109,127,127,102,131
129,56,118,117,134,126,64,134,118,83,120,140,116,112,144,110,109,99,121,122,105,104,111,97,142,107,122,121,128,141,206,157,115,113,119,113,125,100,50,106,112,116,120,115,112,96,166,118,125,117,117,131,104,107,241,120,126,118,126,130,131,134,69,121,121,120,125,146,140,120,60,132,123,119,119,119,112,112,159,121,122,120,117,120,105,129,228,107,117,120,122,123,126,125,38,125,119,121,120,111,144,125,0,127,121,120,126,117,112,116,0,122,122,121,122,126,111,137,240,114,123,121,119,113,128,130,93,140
117,120,120,127,123,112,0,119,125,121,116,101,115,122,0,125,121,121,121,136,113,132,240,104,119,120,125,125,123,114,121,116,118,121,118,118,126,118,0,116,126,121,125,105,121,137,0,128,122,121,133,115,105,116,241,116,119,121,114,114,126,122,144,119,117,121,126,121,129,116,0,112,122,121,116,120,117,131,0,141,117,120,132,117,108,129,242,112,120,121,114,118,129,113,174,111,118,121,118,123,131,121,0,125,123,120,122,117,116,130,0,124,120,120,114,115,103,122,242,119,123,121,120,116,130,115,193,119
124,120,123,124,132,121,0,132,109,121,113,130,110,122,0,111,126,121,124,126,114,133,242,135,119,121,116,117,126,88,209,121,116,121,114,121,128,122,0,117,121,120,146,149,107,107,0,113,128,121,135,120,118,128,242,137,115,122,122,129,127,117,218,111,116,121,115,107,122,105,0,116,117,121,117,118,102,124,0,120,122,121,122,119,111,120,241,114,120,121,123,138,130,134,215,115,126,121,117,122,135,122,0,132,122,121,118,122,116,138,0,123,119,121,123,125,109,123,241,113,121,121,119,133,123,117,206,117
118,121,130,111,129,128,0,127,119,121,123,126,112,116,0,119,122,121,121,112,108,120,242,116,121,121,120,120,127,121,176,118,118,121,126,127,133,123,0,125,119,121,117,120,115,121,0,124,120,121,123,115,112,121,242,118,122,122,122,153,140,123,202,115,120,121,116,115,134,131,0,131,130,121,123,115,111,117,0,128,114,121,119,129,113,127,240,121,116,121,118,115,122,106,157,99,128,121,117,125,128,112,0,132,119,121,122,112,107,117,0,117,113,121,115,122,110,124,242,117,123,121,116,124,131,133,220,114
119,121,127,124,133,118,0,123,119,120,117,118,111,113,0,127,124,121,117,121,109,128,242,118,121,121,124,120,121,122,169,119,118,121,119,117,112,107,0,123,119,121,115,108,123,119,0,116,122,122,122,131,107,109,241,115,120,121,126,115,127,129,215,121,126,121,124,123,135,116,0,126,113,122,125,123,110,123,0,120,124,122,115,115,109,119,241,118,127,121,121,127,127,121,158,124,121,121,121,124,129,121,0,119,117,121,124,125,114,109,0,125,121,121,120,117,106,113,241,114,121,121,122,124,124,131,179,125
119,121,122,125,130,135,0,119,125,121,128,123,120,132,0,132,125,121,122,128,112,115,241,126,114,122,118,123,132,120,181,112,122,122,130,108,131,132,0,124,120,121,120,112,109,121,0,119,124,122,122,133,124,129,242,126,121,121,123,115,127,118,138,123,119,121,121,122,130,119,0,122,119,121,121,120,115,147,0,121,123,121,126,114,116,128,242,119,119,121,119,119,124,102,141,110,121,121,121,126,138,138,0,133,121,121,118,119,105,111,0,133,119,121,121,119,111,117,242,105,125,122,121,126,125,116,183,121
119,121,119,111,136,130,0,126,121,121,120,117,110,127,0,117,125,121,120,119,114,119,240,124,117,122,122,128,126,116,197,118,123,121,119,128,130,122,0,122,117,122,116,112,109,119,0,121,118,121,119,129,114,132,242,122,124,121,119,117,128,115,124,121,118,122,119,128,130,117,0,125,123,121,120,124,107,122,0,128,123,121,119,118,116,140,241,118,121,121,139,129,135,127,180,122,122,121,117,120,129,120,0,130,121,121,119,124,115,122,0,121,118,121,119,123,106,122,240,115,121,121,123,124,126,121,173,117
118,122,120,109,125,119,0,119,127,120,122,127,114,127,0,127,119,121,124,127,113,120,242,118,115,122,121,123,129,118,155,122,113,122,119,124,129,136,0,114,124,121,113,106,111,117,0,124,132,120,114,124,119,121,242,129,103,121,112,122,132,142,192,114,121,122,118,112,121,115,0,113,127,121,118,125,109,124,0,131,126,121,119,120,112,125,241,138,115,122,118,126,125,119,151,94,117,121,116,116,138,130,0,124,125,121,114,120,114,118,1,121,122,121,128,136,114,113,242,124,119,121,120,119,129,134,240,112
116,121,128,122,129,121,0,121,122,121,119,122,119,143,39,125,121,121,123,125,114,122,240,120,117,121,114,124,123,119,241,113,122,121,120,130,135,134,0,121,121,122,118,118,115,127,43,124,122,122,126,129,112,114,241,119,124,121,122,125,131,130,240,114,119,120,114,124,130,130,0,125,122,121,129,125,112,129,231,117,120,122,126,122,114,124,241,118,120,122,116,119,124,111,241,110,119,121,139,133,133,122,241,115,120,121,115,116,115,123,241,122,115,122,123,121,113,113,243,111,125,121,123,126,126,122,241,120
123,121,115,123,129,122,241,119,120,121,117,121,110,118,154,119,121,121,119,124,106,123,129,123,123,121,122,126,129,122,123,115,117,120,121,117,128,119,123,121,125,121,121,121,116,131,121,122,121,121,122,120,114,128,121,122,119,121,125,131,135,114,121,119,119,121,119,119,127,111,121,117,121,121,121,124,113,130,122,121,122,120,117,119,115,118,122,121,118,121,116,119,128,121,122,115,118,121,123,117,126,119,121,126,120,121,121,113,115,120,121,112,126,119,119,124,115,126,122,131,113,121,123,120,128,117,121,118
121,121,119,120,126,107,122,120,119,121,124,122,117,121,121,112,125,152,117,123,116,124,121,133,120,105,126,122,131,114,122,123,124,113,120,119,127,123,121,120,114,118,124,131,112,118,108,118,119,142,122,112,119,122,68,119,126,105,123,132,128,112,45,120,118,114,122,119,125,122,85,121,124,117,120,122,110,116,102,123,117,143,124,123,115,119,93,115,123,105,114,123,131,120,72,122,125,114,123,119,132,120,39,124,116,117,123,122,113,121,127,119,115,161,110,120,114,125,114,111,120,83,110,119,127,119,56,112
122,104,127,123,123,116,94,122,123,113,123,127,121,120,122,124,116,155,119,124,113,123,125,122,122,91,120,120,126,125,88,122,116,108,117,123,123,112,94,114,125,114,121,111,118,123,104,124,119,154,124,139,111,121,122,122,119,96,120,121,124,121,89,117,119,109,118,110,123,121,126,121,118,117,120,124,111,118,125,123,117,172,120,120,118,134,100,119,116,85,119,119,125,124,83,116,124,103,120,117,127,134,105,121,121,114,121,118,114,123,132,124,120,199,119,123,115,120,118,124,119,93,123,121,127,129,95,118
117,86,120,122,122,111,101,123,120,117,120,126,114,123,137,116,121,184,121,122,115,121,121,121,127,95,129,137,133,138,95,126,121,76,121,120,126,119,117,122,117,131,121,134,111,129,139,113,120,191,111,112,114,108,135,117,126,93,122,123,131,127,81,121,119,70,118,113,124,105,137,124,123,116,119,130,114,119,122,120,118,184,125,119,115,122,103,111,121,67,120,125,117,129,45,124,122,76,119,123,121,106,97,117,113,100,116,124,110,116,132,117,123,174,107,128,115,119,117,122,122,83,119,114,127,121,96,114
114,89,116,118,118,104,98,121,122,105,125,120,105,131,156,120,123,175,119,118,117,116,99,118,121,84,117,119,126,117,133,127,119,89,120,122,133,125,130,126,120,107,119,118,113,124,118,114,122,202,119,124,115,116,121,122,121,85,124,127,126,113,99,123,121,75,124,118,131,124,107,121,117,121,120,123,119,121,145,110,121,193,120,123,116,114,110,122,124,88,123,129,131,128,107,124,115,75,125,122,116,115,88,114,124,132,120,122,112,137,158,128,123,181,121,122,115,114,123,121,117,79,121,122,129,122,101,122
117,75,122,121,121,129,141,113,120,118,116,114,116,121,130,120,126,169,124,124,120,127,125,117,116,74,123,127,132,142,120,124,124,86,117,104,123,117,100,118,116,116,130,128,113,128,148,120,113,182,115,130,114,126,109,112,125,94,125,116,124,105,108,125,119,79,112,127,125,127,132,121,123,101,146,130,118,118,140,126,106,158,109,122,117,126,117,101,132,79,115,113,123,116,105,117,129,95,123,117,135,140,119,140,117,131,123,127,114,125,130,107,124,168,122,113,122,146,77,122,127,84,120,121,120,110,114,127
112,85,123,120,129,117,126,123,122,105,121,122,116,125,161,107,120,176,115,120,117,122,119,122,125,71,124,126,117,131,92,126,122,87,119,107,135,115,109,121,117,108,117,115,111,119,130,118,120,151,121,127,113,107,140,120,123,94,125,143,137,130,142,116,114,93,119,105,121,122,123,111,119,164,118,112,109,108,119,119,126,209,119,121,109,111,144,125,118,102,118,128,139,123,115,116,121,62,122,121,124,113,137,125,135,158,117,115,113,112,123,125,108,191,117,110,109,105,138,109,122,98,124,144,129,122,74,119
129,58,121,106,126,120,123,126,109,163,119,117,110,115,130,115,128,160,122,122,114,118,90,117,119,52,132,133,138,132,147,124,117,53,112,116,122,117,106,119,127,113,130,131,115,122,114,121,114,171,119,119,98,134,160,114,121,87,120,130,130,110,88,113,131,73,122,121,127,118,157,131,106,150,119,120,113,118,148,111,122,182,119,126,115,109,132,117,120,74,126,116,126,114,122,117,119,70,126,111,137,113,118,118,123,125,115,110,115,124,138,117,123,165,124,124,121,139,157,129,115,67,121,121,126,109,145,122
128,82,121,117,129,119,115,124,114,128,120,130,113,107,91,103,121,169,126,120,120,128,93,113,129,67,128,134,135,125,158,132,117,88,115,126,124,113,104,120,115,143,126,117,112,132,132,111,119,172,127,124,113,106,102,114,127,68,122,125,132,123,132,131,119,83,116,120,122,112,118,121,120,175,116,117,111,122,166,121,118,185,118,126,115,118,130,122,133,50,125,120,128,114,116,135,106,70,119,120,130,115,124,108,122,144,114,122,114,131,161,131,131,169,128,113,121,120,79,131,119,51,121,129,125,110,118,122
116,86,129,126,123,119,118,119,120,116,119,120,111,128,122,121,128,164,124,128,120,121,109,122,119,69,128,130,136,129,114,122,118,89,117,120,121,117,126,117,117,138,124,121,120,118,135,114,123,162,117,119,116,117,109,117,125,67,126,121,123,125,126,121,119,86,118,122,121,124,129,119,116,105,140,132,121,123,133,118,117,153,132,138,125,116,120,110,127,83,115,110,135,114,139,133,126,103,121,110,121,116,128,119,114,113,119,106,108,109,124,118,116,124,118,117,111,108,127,115,127,103,119,123,131,128,91,127
116,114,122,121,132,111,138,115,123,134,119,119,111,111,121,124,117,172,117,109,118,101,139,114,123,71,123,128,135,139,94,117,117,92,119,115,123,115,122,120,117,133,120,122,96,125,135,118,120,183,113,108,114,116,121,118,123,59,127,134,133,117,108,128,120,86,125,125,128,133,151,113,121,171,126,123,111,120,101,122,115,175,114,124,117,116,107,117,123,70,115,131,142,116,116,120,118,72,137,120,127,126,89,118,118,148,116,129,112,121,143,113,126,152,121,122,116,114,126,121,120,67,118,90,131,122,112,132
121,80,126,135,126,128,124,118,116,130,119,118,104,128,152,120,118,149,124,134,125,111,101,118,125,73,122,115,119,132,106,128,120,99,129,118,127,123,118,120,118,169,116,102,106,122,145,116,123,152,127,127,116,132,116,124,122,62,122,133,128,112,94,126,117,85,115,125,122,120,94,109,117,153,125,113,112,117,131,108,124,177,119,115,124,120,143,120,118,58,119,126,134,117,83,117,123,87,128,128,124,123,123,118,119,126,129,135,112,118,134,121,125,142,123,119,115,112,123,122,119,76,123,123,132,129,139,119
127,100,121,121,123,116,118,118,117,111,115,106,121,117,151,123,120,121,121,132,117,118,90,115,122,103,121,125,134,129,107,124,124,112,117,120,122,121,126,119,115,127,121,114,111,108,121,117,120,133,118,121,121,121,119,114,125,91,118,117,128,149,104,129,123,108,125,122,121,123,121,122,114,138,118,130,105,121,130,112,117,151,122,110,113,123,126,119,125,78,121,130,135,122,120,127,122,101,126,118,120,123,116,119,119,164,123,123,104,124,129,115,118,173,119,107,117,120,117,119,123,55,116,128,130,117,99,122
118,86,121,119,126,120,126,122,117,145,117,114,106,116,121,116,130,146,124,126,125,130,123,118,120,63,119,122,128,119,112,119,117,92,120,122,121,122,129,124,118,173,122,117,109,116,120,117,125,159,121,124,104,132,131,123,125,51,120,123,137,123,131,122,118,84,122,119,125,120,133,124,121,159,120,121,117,123,125,117,122,161,115,122,133,112,121,120,121,57,125,129,132,130,119,121,122,86,122,120,123,115,116,119,118,148,115,116,108,119,138,118,121,138,120,131,122,117,103,122,120,72,114,114,132,119,108,121
113,96,118,117,122,121,127,115,128,144,121,122,112,117,147,122,110,161,116,126,113,105,119,112,125,76,128,123,140,133,78,126,126,87,121,117,121,112,126,123,115,187,114,114,103,125,141,116,123,174,118,121,115,118,121,119,122,38,121,123,134,123,89,122,123,77,124,116,124,118,114,122,117,154,118,118,110,120,136,119,121,144,122,122,119,122,125,121,123,67,124,122,132,117,109,126,123,89,124,114,128,126,123,119,117,178,121,121,111,120,142,119,119,149,118,122,118,119,120,119,120,60,122,125,129,114,114,121
126,83,126,125,128,117,106,122,120,191,118,126,110,122,142,121,120,177,119,127,117,120,123,118,121,86,123,126,133,123,98,122,120,117,124,117,121,120,125,119,117,240,116,111,99,109,138,120,121,212,120,132,122,121,119,120,122,109,120,121,133,120,107,124,119,144,119,119,122,125,126,119,118,241,117,125,108,122,140,117,121,206,117,116,117,122,95,117,122,104,127,129,132,111,117,125,118,89,119,114,123,120,123,120,119,234,119,124,106,121,142,116,121,240,116,121,120,126,124,120,118,196,117,123,133,121,98,119
123,235,119,116,121,136,127,115,118,242,115,119,107,114,137,120,120,242,119,123,120,121,116,119,125,241,117,122,128,124,109,123,121,241,118,121,122,121,120,120,122,241,119,119,121,126,149,125,118,241,117,122,120,123,118,119,121,193,117,112,134,116,104,122,120,138,120,117,120,122,129,121,116,127,117,102,116,113,137,118,124,123,125,128,120,126,113,123,123,123,123,123,135,114,102,122,116,123,119,124,119,123,127,119,119,122,120,119,115,126,147,117,123,122,117,121,119,118,109,121,121,122,123,123,129,118,101,121
121,123,117,120,132,115,120,116,121,122,123,122,114,133,152,122,119,122,120,121,119,118,111,119,121,122,127,114,132,140,98,120,122,122,119,118,124,127,128,118,118,121,123,119,108,122,147,117,118,122,120,123,126,120,100,116,125,122,123,124,140,123,94,123,124,122,124,122,122,127,137,121,118,121,119,117,121,120,148,116,124,121,124,127,125,128,105,123,121,121,123,121,134,123,102,119,115,121,117,119,118,122,126,117,119,121,120,119,102,122,152,118,123,121,126,118,121,128,107,117,121,121,121,125,133,123,93,123
123,122,119,120,121,117,120,122,115,122,119,109,109,122,152,117,126,122,117,126,121,119,115,123,123,121,122,128,135,123,83,120,119,122,117,116,119,116,130,119,118,121,117,117,107,121,152,118,118,122,122,120,121,100,116,121,122,121,123,126,140,141,92,123,124,121,119,124,122,125,135,120,122,122,118,115,96,108,150,121,117,121,120,125,121,121,116,118,123,121,120,121,134,122,91,120,121,121,121,118,123,123,124,120,119,121,119,117,111,115,154,118,119,121,119,125,101,111,111,121,118,122,121,117,132,117,80,121
121,122,118,121,132,119,126,124,119,121,125,118,107,119,149,116,123,121,119,122,121,122,114,123,122,122,120,124,132,119,82,124,122,121,122,114,127,123,124,123,117,121,121,125,110,123,152,119,121,121,125,122,121,121,116,121,121,122,121,124,133,115,90,121,119,121,118,124,120,123,114,118,114,121,120,118,108,116,148,115,125,121,119,122,130,119,113,122,124,121,124,129,133,119,89,123,118,121,119,120,120,122,129,119,119,122,122,121,105,140,150,118,124,121,122,122,128,122,108,119,118,121,120,131,135,122,90,122
122,122,121,118,125,119,132,121,119,122,124,117,105,118,151,118,122,121,121,124,122,120,107,124,123,121,122,126,136,123,80,121,118,121,119,119,121,123,129,117,120,122,123,127,107,122,169,119,120,121,119,108,120,121,110,118,120,122,127,137,137,121,99,122,119,121,121,122,123,118,114,117,119,121,120,119,106,124,163,122,123,121,122,122,126,150,119,120,121,121,122,120,136,121,96,123,118,121,120,122,118,119,130,118,117,121,118,112,107,128,159,116,125,121,126,120,123,116,106,124,121,121,123,125,136,124,91,123
120,122,120,120,123,126,121,120,121,122,119,119,102,122,155,117,120,121,114,119,122,119,117,120,121,121,124,129,128,118,84,122,118,122,115,108,117,131,129,120,120,122,120,122,110,111,146,122,123,121,123,123,124,116,111,120,122,121,120,125,133,114,88,123,118,121,119,119,119,126,117,117,118,121,120,115,105,116,163,117,123,121,122,126,123,122,104,126,123,122,123,129,137,120,79,122,115,121,121,120,119,124,137,119,120,121,121,116,106,122,147,118,123,122,119,120,124,121,105,120,119,47,121,125,135,120,90,120
122,90,121,115,121,124,124,116,118,122,119,119,105,119,155,118,120,64,122,124,122,117,102,119,123,51,125,138,132,124,79,122,114,108,115,112,118,113,126,116,118,140,130,130,110,123,159,118,124,88,127,135,122,120,114,125,121,61,122,114,137,121,85,123,118,121,118,115,119,119,136,120,121,140,120,124,106,125,169,113,120,84,119,114,124,120,101,121,120,73,121,124,135,127,75,122,122,123,122,125,119,124,131,119,119,146,124,117,119,120,151,116,121,104,131,129,120,114,119,122,119,73,120,122,127,118,86,117
119,128,120,126,116,128,130,120,118,148,120,120,96,114,168,118,122,96,123,123,120,119,110,118,124,76,122,129,141,131,70,127,118,123,120,123,120,119,131,118,118,157,120,119,102,114,165,117,123,98,120,117,124,126,101,118,118,76,122,123,137,113,64,123,116,130,119,121,120,123,131,118,124,149,120,129,108,130,171,120,120,95,120,120,122,118,113,121,119,73,123,127,136,122,78,123,119,125,124,127,112,127,123,121,119,156,118,120,104,124,173,119,119,102,120,116,120,117,105,118,124,77,122,126,136,123,70,124
119,131,112,112,120,121,138,120,120,153,124,122,106,114,165,118,121,95,123,124,122,127,104,122,121,70,117,116,136,115,72,123,121,134,124,117,120,122,124,121,119,160,119,118,113,123,173,117,123,101,118,118,124,121,104,121,121,79,126,132,135,119,66,122,120,132,118,119,135,127,137,121,121,153,120,116,103,119,164,118,122,99,126,131,123,125,106,123,119,83,121,123,138,120,76,121,120,136,120,121,121,120,132,123,121,159,120,119,104,127,185,122,120,106,122,128,117,109,106,115,121,87,121,124,140,118,73,119
119,137,121,117,117,117,133,119,118,158,118,121,106,123,168,119,121,101,122,117,121,119,113,121,125,85,122,116,145,111,74,121,116,135,121,121,120,122,135,120,121,151,120,121,105,126,176,119,120,99,121,114,124,125,114,119,125,83,123,130,137,105,57,122,120,133,120,122,120,116,135,122,118,147,116,115,105,125,176,116,122,108,123,121,123,117,103,121,122,87,121,129,136,126,78,122,117,127,119,119,120,121,126,119,121,145,119,121,104,119,170,117,121,103,123,113,126,123,108,124,122,93,122,129,136,121,74,124
120,138,123,111,119,119,139,119,118,155,119,121,105,130,161,117,121,105,122,118,116,130,117,122,122,80,120,125,140,115,73,124,122,134,120,126,117,126,115,120,118,146,118,115,112,113,159,121,120,102,120,125,121,122,113,115,123,94,124,118,141,114,35,119,119,131,119,121,121,119,164,120,119,145,122,118,104,120,157,120,122,104,121,122,121,122,107,121,119,87,118,122,135,122,89,121,120,131,118,121,118,118,129,120,122,146,124,120,110,131,212,131,121,102,120,125,122,116,88,117,122,90,126,127,148,118,90,125
119,128,117,118,119,121,119,117,120,152,121,115,109,126,180,114,123,105,121,123,121,116,114,120,120,90,121,119,138,119,73,125,117,125,120,122,118,121,151,117,120,147,117,114,101,117,160,117,122,100,126,120,126,119,108,122,119,89,120,123,136,120,69,115,121,128,121,126,133,116,139,127,118,156,116,116,100,127,175,115,124,108,123,125,125,128,131,122,125,81,123,128,137,121,89,122,118,121,122,122,119,121,143,117,120,158,119,116,104,121,160,116,121,90,122,123,123,119,108,121,121,62,125,124,135,113,64,122
120,122,119,119,123,130,145,123,121,161,118,116,106,128,202,117,121,70,124,125,123,117,61,117,123,0,126,134,139,129,97,127,117,77,120,119,120,118,133,116,122,133,119,114,105,118,178,119,120,0,125,130,126,125,125,120,119,0,123,120,137,117,40,119,120,0,126,122,117,124,158,117,119,0,122,120,105,123,176,120,122,0,123,125,129,110,97,121,121,0,123,122,138,120,69,121,118,0,124,121,116,121,137,119,121,13,122,115,111,121,188,120,122,57,123,126,124,120,92,118,123,84,123,123,138,133,66,127
119,100,120,125,116,110,136,118,120,108,120,118,106,132,177,116,120,114,123,129,124,122,121,123,122,116,121,122,139,131,77,122,119,118,125,115,117,115,141,116,122,119,122,125,107,120,202,123,117,119,116,126,118,125,91,117,122,119,117,126,141,113,60,127,117,120,125,134,119,123,143,121,121,120,121,123,106,128,179,119,118,120,115,123,122,119,111,115,127,120,129,120,143,115,57,126,120,121,120,118,122,139,136,119,121,120,120,115,104,124,184,113,115,121,118,128,117,132,102,115,128,120,123,120,143,126,57,138
117,120,119,124,115,116,143,116,119,121,120,103,100,124,218,115,126,120,124,125,132,120,110,128,121,121,126,126,141,131,49,117,120,120,117,125,120,118,128,121,117,120,115,116,100,120,202,115,120,121,132,125,128,144,100,121,123,121,121,122,136,105,42,127,114,121,117,101,112,124,125,116,124,121,121,121,108,117,222,127,120,121,121,120,112,127,85,117,122,121,125,134,139,117,15,121,118,120,122,127,117,118,153,115,123,120,132,122,117,135,237,126,122,121,119,134,122,116,107,120,117,120,120,115,136,118,47,122
121,122,118,129,120,131,114,125,120,121,118,110,104,121,202,114,124,121,122,123,128,130,108,126,118,121,119,121,139,119,1,122,120,121,118,127,117,113,131,114,118,121,117,112,102,123,233,116,122,121,127,124,125,121,109,121,123,121,116,113,146,104,13,123,124,121,124,132,130,122,126,121,119,121,116,116,104,115,241,114,122,121,116,121,124,119,101,133,123,121,126,132,137,126,0,127,117,121,117,119,120,101,125,112,117,121,124,117,101,127,241,119,125,121,114,133,131,129,86,123,117,121,119,121,136,117,0,118
122,121,119,118,117,116,123,122,116,122,121,119,109,126,241,111,124,121,118,129,124,133,106,133,124,121,119,123,138,117,0,123,118,121,116,119,115,122,13,113,121,121,119,120,109,133,241,134,120,121,121,126,125,122,242,111,122,121,127,127,134,119,0,121,119,121,120,120,117,116,0,115,121,121,110,118,104,120,241,119,121,121,124,124,124,122,213,119,121,121,117,129,137,106,0,121,121,122,117,131,106,121,0,120,120,121,127,130,107,129,242,118,120,121,119,115,124,118,240,113,120,121,119,121,120,124,0,128
121,121,119,127,123,107,0,125,117,121,113,96,103,127,242,117,122,122,131,132,125,125,241,130,116,121,118,126,133,106,0,102,133,121,122,126,121,132,0,154,119,121,120,111,102,112,241,114,118,120,122,110,126,109,241,111,117,120,121,130,138,116,0,103,126,120,119,119,118,131,0,147,119,120,112,77,105,120,242,118,121,122,133,165,125,124,241,117,124,121,121,118,140,106,0,126,120,120,120,120,118,126,0,124,116,121,117,122,97,121,241,112,125,121,131,105,130,137,241,129,119,121,123,135,134,111,0,122
119,121,121,120,118,129,0,120,116,122,99,116,98,111,242,111,122,121,152,97,121,124,241,121,124,122,133,139,149,132,0,122,115,122,118,119,119,112,0,114,126,122,119,116,105,123,241,124,123,121,121,126,125,133,240,120,119,120,123,107,148,117,0,117,118,121,119,121,109,116,0,112,120,122,122,121,104,123,241,117,119,120,119,115,121,118,242,116,121,121,121,119,142,130,0,123,122,122,131,133,120,119,0,126,113,121,119,120,108,124,240,99,121,121,116,134,127,126,240,122,121,122,123,121,136,115,0,113
123,121,110,104,117,132,0,139,114,121,114,90,98,119,242,106,125,121,124,127,136,117,241,122,120,122,123,129,142,124,0,126,119,121,112,116,116,93,0,116,122,121,127,134,102,129,242,122,123,121,121,124,124,120,240,116,116,121,116,124,139,123,0,119,123,121,125,122,109,124,0,128,122,121,129,119,105,124,240,118,119,121,118,132,121,122,242,110,119,121,120,123,135,104,0,119,125,121,122,136,124,133,0,129,119,122,121,110,104,126,242,116,124,121,121,125,126,123,240,129,117,121,120,127,135,112,0,114
119,121,121,121,116,126,0,121,118,121,122,111,101,117,241,99,125,121,123,125,130,132,240,142,118,121,116,131,140,126,0,124,117,122,115,108,115,116,0,108,121,121,131,128,108,126,240,116,117,121,129,119,124,119,242,109,122,121,109,117,136,118,0,123,119,121,131,141,129,124,0,120,121,120,115,110,106,122,242,130,119,121,127,120,121,116,242,117,122,122,125,158,139,114,0,112,121,122,119,126,118,135,0,126,120,121,118,109,101,118,242,111,121,121,120,130,126,118,241,124,120,121,126,134,140,118,0,113
119,121,119,118,115,123,0,129,127,149,120,106,101,116,241,133,122,113,121,122,119,103,242,131,127,117,125,134,154,143,0,128,115,120,115,126,117,126,0,118,117,121,111,104,94,107,242,107,122,121,131,105,119,104,242,96,127,121,144,138,145,140,0,156,114,122,104,98,115,110,0,112,119,121,123,139,106,123,240,118,117,118,113,124,116,121,242,117,123,121,126,118,134,124,0,124,117,207,117,114,121,120,0,118,121,240,111,120,102,111,242,133,122,143,141,116,133,123,242,119,115,0,118,112,134,119,0,124
127,55,121,130,121,132,0,138,113,230,114,114,91,80,242,103,122,122,121,108,120,121,240,127,118,40,122,130,147,112,0,113,114,81,120,118,116,122,0,111,123,188,116,112,105,120,241,111,122,71,117,124,125,121,242,129,115,98,120,124,133,107,0,114,121,110,117,114,120,134,0,130,121,115,113,120,101,109,240,113,129,118,129,123,130,142,241,133,117,119,114,125,137,106,0,116,120,120,120,118,119,121,0,129,115,120,128,99,106,132,241,120,120,121,129,162,127,126,239,120,121,121,130,117,140,125,0,125
123,121,125,125,122,136,0,124,118,121,121,120,111,104,240,107,123,121,110,122,121,127,241,128,119,121,116,142,145,96,0,116,118,121,117,121,119,116,0,117,120,132,122,129,100,125,240,126,124,115,118,116,126,113,241,124,118,119,113,93,132,109,0,113,123,120,126,142,117,119,0,129,119,228,120,110,100,110,242,115,125,87,126,120,122,123,241,115,123,95,122,127,139,120,0,138,125,109,126,120,123,124,0,133,119,218,123,113,98,122,242,115,117,92,117,124,120,112,242,103,125,91,119,117,142,135,0,133
120,107,121,115,113,123,0,130,117,191,122,118,99,120,240,115,119,116,121,121,121,106,215,109,125,91,123,132,140,124,0,121,111,106,119,127,126,113,12,111,124,216,116,115,95,126,242,125,115,104,112,128,125,119,237,109,121,85,125,126,140,119,0,122,121,104,110,105,108,126,15,122,121,167,124,97,105,122,241,112,119,99,128,117,125,132,241,117,118,110,132,127,139,123,0,123,122,116,116,125,127,106,12,126,118,173,117,115,101,113,241,110,121,98,116,128,136,127,241,119,123,109,115,116,133,112,0,118
117,116,116,124,112,127,4,119,118,201,120,93,97,123,242,115,120,96,127,110,125,123,240,94,122,97,117,133,149,117,0,130,122,110,117,118,99,146,5,124,117,241,118,118,102,128,241,110,120,107,121,115,122,114,239,113,125,79,126,116,148,108,0,111,118,101,121,117,112,118,8,121,117,241,132,108,90,115,241,108,124,119,118,84,138,134,241,131,120,62,113,124,140,117,0,122,120,103,124,120,124,126,9,122,122,241,116,103,102,116,241,113,116,136,120,124,120,105,236,105,121,35,125,131,139,123,0,116
