121,122,120,121,121,121,121,121,120,121,121,122,121,120,120,120,122,122,120,121,121,121,122,121,121,121,121,122,121,121,121,120,121,122,121,122,120,120,121,120,120,121,120,121,121,121,121,121,120,121,120,122,121,121,121,119,120,120,121,122,121,121,121,121,121,121,122,122,121,121,121,121,120,121,121,122,122,122,121,119,119,120,121,121,121,121,122,120,121,122,121,122,122,122,122,120,120,121,121,122,121,121,122,120,119,121,121,122,122,120,120,119,122,121,121,122,122,121,121,121,120,121,121,122,121,121,121,120
121,122,121,122,121,120,121,120,119,122,121,122,121,121,121,121,120,121,121,122,121,121,121,119,120,121,121,122,121,121,121,119,120,121,121,122,121,122,121,120,120,121,121,122,122,121,121,120,121,121,121,122,121,121,121,123,120,121,121,122,121,121,121,119,121,122,121,122,122,121,121,120,120,121,121,122,122,121,121,120,121,121,121,122,121,121,120,120,120,121,121,122,121,120,120,118,121,122,122,123,122,121,121,121,120,120,120,121,121,121,122,120,119,121,121,122,121,121,121,120,120,120,120,122,121,121,122,120
120,121,121,122,121,121,120,120,120,122,122,122,121,121,122,121,120,120,120,122,121,121,120,120,121,121,121,122,121,121,122,120,121,122,121,122,122,121,121,119,120,122,122,122,121,120,121,120,121,121,121,122,121,121,121,122,120,120,121,122,121,122,121,119,121,122,120,122,122,121,121,119,121,121,121,122,121,121,121,121,120,121,121,122,121,121,120,120,121,121,121,122,121,120,120,120,120,121,121,122,122,122,121,120,121,122,121,122,121,121,121,120,120,121,120,121,121,122,121,120,119,121,121,122,121,122,121,119
122,123,121,121,120,121,121,121,119,121,120,121,121,121,121,119,121,122,121,122,121,122,122,122,121,121,120,121,121,121,121,121,121,122,121,121,121,121,122,120,120,122,121,122,121,121,121,121,120,122,121,122,120,121,121,120,121,121,121,121,121,121,121,120,121,122,121,122,121,121,121,120,121,122,121,121,121,121,121,120,121,121,121,121,121,121,121,121,121,123,121,122,121,122,121,120,120,120,121,122,121,121,122,121,121,122,121,121,121,121,123,120,123,122,121,121,121,121,121,120,121,122,121,122,120,121,121,121
119,121,121,122,121,122,121,120,121,122,121,122,122,121,121,121,120,121,121,122,121,121,121,119,121,122,121,122,121,121,121,120,120,121,121,122,121,121,121,120,121,121,120,121,121,121,122,121,121,121,121,121,121,121,121,121,121,122,121,121,120,120,122,121,121,122,121,122,121,120,120,118,120,121,121,122,121,121,121,121,121,122,121,122,121,122,122,120,121,122,121,121,120,121,122,121,117,121,122,122,122,122,122,122,124,121,121,122,121,121,122,121,120,121,120,121,121,121,121,120,120,122,121,121,121,121,122,119
121,122,121,121,121,121,121,121,121,122,122,122,121,121,121,120,121,122,120,121,121,121,121,121,119,120,120,121,121,121,121,119,120,122,122,122,120,121,122,121,121,122,121,121,120,121,121,121,120,121,121,122,121,121,122,120,119,120,120,122,122,122,121,120,121,122,121,122,121,121,120,120,120,121,121,122,121,121,122,120,120,123,121,122,121,121,121,121,120,121,121,122,121,121,121,120,120,121,121,122,122,122,121,120,120,121,121,122,121,121,121,120,120,121,122,122,122,120,121,119,119,121,121,122,121,122,121,120
120,123,121,121,120,120,121,120,124,121,121,122,121,121,120,120,120,121,121,122,122,121,121,120,120,122,122,122,121,121,122,122,121,121,120,121,121,121,121,121,120,120,120,122,121,121,122,120,121,121,121,121,121,121,121,120,121,122,121,122,122,122,123,121,121,121,121,122,120,120,123,121,119,122,121,122,122,121,120,120,122,121,121,122,121,121,121,120,119,120,121,122,121,121,121,119,120,120,120,122,121,121,121,120,119,121,121,122,121,121,121,119,120,121,121,122,122,121,121,120,123,121,120,122,121,121,122,120
121,122,121,122,122,121,121,120,119,121,121,121,121,121,121,120,121,121,121,122,121,121,121,120,120,121,121,122,121,121,121,120,121,121,121,121,121,122,122,121,121,122,120,121,121,121,121,119,120,122,122,122,121,120,121,121,120,120,120,122,121,121,121,120,120,122,122,123,122,121,122,121,120,122,122,122,122,121,121,120,122,121,121,122,121,120,120,121,120,121,121,122,121,120,120,120,120,121,120,122,121,121,122,120,121,122,121,121,121,121,120,119,120,120,120,121,121,121,121,120,120,121,121,122,121,121,121,119
120,121,121,122,121,121,122,121,119,121,121,122,121,121,121,120,120,121,120,121,121,121,121,121,122,120,120,121,121,121,122,121,120,121,120,121,121,121,121,121,122,120,120,121,121,121,121,121,120,122,122,122,122,121,121,121,120,122,120,121,121,121,122,122,120,121,121,121,120,121,121,119,119,122,121,122,122,121,121,120,125,122,121,122,122,121,121,121,119,120,120,121,121,121,121,121,121,122,120,121,120,121,121,121,120,121,121,122,121,120,121,120,121,122,121,123,121,120,121,120,120,121,121,121,121,121,122,121
120,121,120,121,121,121,122,120,120,121,121,122,121,121,122,121,121,122,121,122,120,121,121,121,122,121,121,122,121,121,122,120,121,121,120,122,121,122,122,122,121,122,121,121,120,121,121,120,120,121,120,122,121,121,121,120,120,122,120,121,121,121,122,121,121,121,120,121,121,121,122,121,120,122,121,122,121,121,121,120,121,121,121,121,120,121,121,121,120,120,121,122,122,121,122,120,120,122,121,122,122,121,123,121,121,121,121,121,121,121,121,121,121,121,121,122,121,121,121,119,117,119,120,121,121,121,122,121
121,123,121,122,121,121,121,121,122,122,121,121,121,121,122,120,122,121,121,122,120,120,121,120,120,122,121,122,122,121,120,120,125,122,121,122,122,122,121,120,116,121,121,122,121,121,121,119,125,122,121,121,121,121,121,120,117,122,121,121,121,121,121,121,123,122,121,122,121,120,121,120,120,122,121,122,120,121,121,120,119,119,120,121,121,121,121,120,122,121,121,122,121,120,121,120,120,121,120,122,121,121,123,120,119,121,121,122,121,120,121,119,123,123,121,122,122,122,122,120,120,121,121,122,121,121,120,120
121,122,122,122,120,120,121,121,121,121,121,121,121,121,122,121,121,122,121,123,122,122,121,121,120,121,121,122,121,120,121,121,120,122,121,121,121,121,122,120,121,122,122,122,121,121,121,119,119,121,120,122,121,121,120,119,120,122,122,122,121,120,121,120,124,121,120,121,121,121,121,122,120,122,121,122,122,121,120,119,120,122,121,121,120,120,121,120,122,122,121,122,121,121,121,121,119,121,122,122,122,121,121,120,123,121,121,122,120,120,121,122,120,121,121,122,122,121,120,119,121,120,122,122,121,120,121,120
121,122,121,122,121,120,121,120,118,120,121,122,122,121,121,120,122,121,121,122,122,121,120,120,121,121,122,122,120,121,122,121,122,122,121,122,121,122,122,121,120,123,121,121,121,121,121,121,120,119,120,122,121,121,121,120,120,122,121,122,121,120,121,119,122,120,121,122,122,121,121,121,120,122,121,121,121,121,121,121,119,121,121,122,122,121,121,120,121,121,120,122,121,122,122,120,117,121,121,122,121,121,121,120,124,122,122,123,121,121,121,122,120,121,120,121,121,121,121,120,119,121,121,121,120,120,120,120
120,121,121,122,122,121,121,120,121,122,120,121,121,121,121,121,121,121,121,121,120,121,122,121,120,121,121,122,121,121,122,121,120,121,121,122,121,121,121,120,120,122,120,122,121,121,121,120,123,122,122,123,121,121,121,121,120,121,121,121,120,121,121,121,120,120,120,121,121,121,121,121,120,121,121,122,121,121,123,120,120,121,120,121,121,121,121,120,121,122,120,121,121,121,121,121,120,121,121,122,121,120,122,121,120,123,122,122,121,121,121,121,120,122,121,122,121,120,121,119,121,121,121,122,122,120,120,120
121,122,121,122,122,121,120,120,119,121,120,122,122,122,122,120,122,122,120,121,121,121,121,121,119,121,122,122,122,121,122,120,125,122,121,122,122,121,120,120,120,122,121,121,121,121,121,120,119,120,121,122,121,121,122,120,121,122,121,121,121,121,121,120,120,122,122,122,121,122,122,121,122,121,121,121,121,121,122,121,119,120,121,122,121,121,122,120,120,120,120,122,121,121,122,120,121,120,120,121,121,121,121,121,121,122,122,122,121,121,121,120,119,121,120,122,121,121,121,120,121,120,120,121,121,121,121,121
120,120,120,122,121,121,122,121,120,121,121,123,121,121,121,120,120,123,120,121,121,122,124,120,121,120,120,121,121,121,121,121,120,122,122,122,120,121,121,121,120,122,121,122,122,122,121,121,120,123,121,122,121,121,121,120,122,122,120,121,121,121,122,120,119,121,121,122,120,120,121,120,123,121,121,122,121,121,122,121,119,121,121,122,122,121,121,121,121,122,121,122,122,121,121,119,120,122,121,123,121,120,121,120,120,121,121,122,121,121,121,120,118,121,121,122,122,121,121,121,120,121,122,122,121,120,120,120
120,122,121,121,120,121,121,120,120,122,121,122,121,120,120,120,119,120,121,122,121,121,122,119,121,122,121,122,120,121,121,121,121,122,122,122,121,121,121,121,121,122,120,121,121,121,121,120,119,121,121,122,121,120,121,120,120,121,121,122,121,121,121,119,121,121,120,122,121,121,122,120,122,122,122,122,121,120,121,121,120,120,121,122,121,121,122,120,119,122,121,121,121,121,121,120,121,121,120,121,121,121,121,121,120,122,121,122,122,121,120,119,120,122,121,122,121,121,121,120,122,121,121,122,122,122,121,120
119,121,121,121,121,121,121,120,119,121,121,121,120,121,122,121,120,120,119,121,121,121,122,122,121,123,121,122,122,122,121,120,122,122,122,122,122,121,121,121,119,121,121,122,121,120,121,120,119,121,121,122,121,121,121,120,120,122,121,122,121,120,121,120,119,121,120,121,121,121,122,120,120,121,121,122,121,122,121,120,121,122,121,121,121,121,122,120,120,121,121,122,121,122,121,120,119,123,121,122,122,121,122,121,124,121,120,121,121,122,121,119,119,121,121,122,121,121,121,120,119,121,121,122,122,121,121,120
120,121,121,122,121,121,121,119,121,122,121,122,121,121,121,121,119,120,120,121,121,121,122,120,121,122,120,121,121,121,122,120,120,123,121,122,122,121,121,120,122,121,122,122,121,121,122,121,120,123,122,122,120,120,121,120,120,121,120,121,121,121,121,120,121,121,120,121,121,121,121,120,120,121,121,122,121,121,122,121,120,122,121,121,120,120,121,120,120,121,121,122,121,121,121,120,120,121,121,122,121,121,121,121,120,122,121,121,121,121,122,121,122,122,121,122,122,121,122,121,121,122,121,121,120,121,121,120
120,121,120,121,121,121,121,121,120,122,121,122,121,120,121,121,120,122,121,122,121,121,121,121,121,121,121,121,120,121,122,120,121,121,120,121,121,121,122,120,120,122,121,122,121,121,120,120,120,121,121,122,122,121,121,119,120,121,121,122,122,121,121,122,121,122,120,121,121,121,121,120,121,122,121,121,121,121,121,120,121,122,121,121,120,121,122,121,121,121,121,122,121,122,122,120,121,121,121,121,121,121,122,120,121,121,120,122,121,121,122,121,121,122,121,121,120,121,122,120,120,122,121,121,120,121,121,121
124,121,121,122,122,121,121,120,120,121,120,122,121,121,122,120,120,121,120,121,121,121,121,121,121,122,120,121,121,121,122,121,122,122,121,123,122,121,121,121,120,122,120,121,121,121,121,120,121,120,120,122,121,121,121,121,119,121,122,122,121,120,120,120,120,121,121,122,121,121,121,120,121,121,121,122,121,121,121,120,121,121,121,122,121,121,121,119,120,122,122,123,121,121,121,119,121,122,122,123,122,121,122,121,120,121,121,122,122,122,122,120,120,121,121,122,121,121,121,121,122,121,121,122,121,121,121,120
120,121,121,122,120,120,121,120,122,121,121,122,121,121,120,119,120,122,121,122,121,121,120,120,120,121,121,122,121,121,120,120,120,122,120,121,121,121,122,121,120,121,121,122,122,121,122,121,121,122,122,122,121,121,122,121,120,120,120,121,121,121,121,120,119,121,121,122,121,121,120,120,121,121,120,121,121,121,123,121,120,122,121,122,121,121,120,120,123,121,121,122,121,121,121,120,119,121,121,122,122,121,121,118,120,121,121,122,121,120,121,121,121,121,121,122,121,121,121,120,120,121,120,121,121,121,121,121
121,122,121,122,122,121,120,120,121,121,121,122,121,121,121,121,120,121,121,122,122,121,121,119,119,121,122,122,121,121,121,121,123,121,121,122,121,121,123,121,119,121,121,122,121,121,120,119,120,122,121,122,121,120,121,120,120,121,121,122,121,121,122,121,121,123,121,122,121,120,121,121,121,122,121,122,121,121,122,121,120,121,121,122,122,121,120,120,121,122,120,121,121,121,122,120,121,120,121,121,121,121,121,121,120,123,121,122,122,121,120,121,121,122,121,122,121,120,121,119,120,122,121,122,121,120,121,120
120,122,121,122,122,121,122,120,120,121,121,122,121,122,123,122,121,122,121,121,120,121,121,120,120,122,121,121,120,121,121,120,121,122,121,121,121,121,121,120,121,121,120,122,121,121,122,121,120,121,121,121,121,121,122,120,120,121,120,121,121,121,121,121,124,122,122,122,121,121,122,121,120,122,121,122,121,121,121,121,120,122,121,122,121,120,121,120,121,121,121,121,121,121,121,120,121,121,120,121,121,121,121,121,121,121,120,121,121,122,122,121,120,122,122,122,121,121,121,121,121,121,120,121,121,121,122,120
121,122,121,121,120,121,121,121,120,121,120,121,121,121,121,121,121,122,122,122,121,120,121,121,119,121,121,122,121,120,120,119,120,122,120,121,120,121,121,119,121,121,120,121,121,121,122,121,121,121,121,122,120,120,121,121,120,121,120,122,121,121,121,120,120,122,121,121,121,121,121,120,120,121,120,122,121,121,122,121,121,121,120,122,121,121,121,120,120,121,120,121,121,121,121,120,121,121,120,121,121,121,121,121,119,120,121,122,121,121,122,120,125,121,120,121,121,121,122,121,119,121,121,121,121,121,122,120
122,122,121,121,121,121,121,121,120,122,121,121,121,121,122,122,120,121,121,122,120,120,121,121,122,122,122,123,121,121,121,120,120,122,121,122,121,121,121,120,121,123,121,121,121,121,121,121,121,122,122,121,120,121,122,121,120,120,121,121,120,120,121,120,121,123,122,121,121,121,121,121,122,121,121,122,122,121,120,120,120,122,121,122,121,121,121,120,122,122,121,121,120,121,121,120,120,121,121,122,121,122,122,121,123,122,121,122,121,120,120,121,119,121,121,122,121,121,121,119,119,121,121,122,121,120,121,121
121,122,121,121,120,121,121,120,121,122,121,121,121,121,121,120,120,121,120,122,121,121,122,120,120,121,121,122,121,121,121,120,119,121,121,122,121,121,121,119,125,122,121,122,122,122,122,121,119,122,121,122,122,121,121,119,120,121,121,122,121,122,121,120,120,121,121,122,121,121,121,119,120,121,121,122,121,121,121,120,121,122,121,122,121,120,121,121,120,121,121,122,122,121,121,119,120,122,121,122,122,121,120,120,120,121,121,122,122,121,121,119,120,122,121,122,121,121,122,121,122,121,121,122,121,121,121,120
120,122,121,122,122,121,121,119,120,122,121,122,121,121,121,120,119,120,121,122,121,121,122,120,121,121,121,121,121,121,122,123,121,122,121,121,120,121,121,121,120,122,121,122,121,121,120,120,120,121,121,122,121,121,121,119,120,121,121,122,121,121,121,119,121,122,121,121,120,121,121,120,120,122,122,121,121,121,121,119,121,121,121,122,121,120,120,120,120,121,122,122,121,121,121,120,120,122,122,122,121,121,122,121,120,121,121,122,122,121,121,120,120,121,121,122,121,120,120,120,120,122,121,122,121,120,122,120
121,121,121,122,121,121,120,122,120,121,121,122,121,121,121,119,120,122,121,122,121,120,121,120,121,121,121,121,120,121,121,121,121,121,120,122,121,121,121,121,121,122,121,122,120,121,121,120,121,122,120,121,121,121,121,121,121,121,121,121,121,121,121,120,121,122,121,122,121,122,122,121,121,122,121,121,120,120,121,121,121,122,121,121,120,121,121,121,121,122,121,122,121,120,121,121,120,122,121,121,120,121,121,119,120,122,121,122,121,120,121,120,120,122,121,122,120,120,121,120,120,121,121,122,120,121,121,120
120,122,121,122,121,120,121,120,120,123,122,122,122,121,122,121,121,121,121,121,120,120,121,120,119,120,120,121,121,121,121,120,124,122,122,121,120,121,121,121,119,121,121,121,121,121,121,121,120,121,120,121,120,121,121,120,119,120,121,122,122,121,121,120,120,121,120,121,121,121,121,120,122,121,121,122,121,122,122,120,119,123,121,122,121,121,122,121,120,122,121,122,121,121,122,120,122,123,121,121,121,121,122,121,121,122,121,121,121,121,121,120,120,121,120,121,121,120,122,119,122,121,120,121,121,121,121,121
119,121,121,122,122,121,121,120,120,121,120,122,121,121,121,120,120,120,121,121,121,122,122,120,120,122,121,122,121,121,121,120,121,121,120,121,121,121,121,121,121,122,121,122,122,122,121,119,120,121,121,122,121,121,121,120,121,122,121,122,121,121,122,120,120,122,121,122,121,121,121,121,120,121,121,121,121,122,123,120,119,121,121,122,121,120,121,120,121,121,121,122,122,121,121,121,120,122,121,122,122,121,120,119,119,122,121,122,121,121,121,119,121,121,121,122,121,121,121,120,121,121,121,122,121,121,120,119
120,122,121,121,120,121,121,121,120,121,120,122,121,121,122,120,121,121,120,121,121,121,122,120,120,121,121,122,121,121,120,120,121,122,122,122,121,121,122,121,121,122,121,121,121,121,121,121,119,120,120,122,121,121,121,119,120,122,121,122,121,120,121,120,121,122,122,122,120,121,121,120,120,123,122,122,122,121,121,120,121,120,120,121,121,121,122,121,121,122,121,121,120,121,121,121,120,121,121,122,121,121,120,120,121,122,121,122,122,122,122,121,122,122,121,122,122,121,120,120,120,121,121,122,122,121,121,119
120,122,121,121,120,121,121,119,121,121,121,122,121,120,120,120,120,121,121,122,122,122,121,120,120,121,121,122,121,121,120,119,121,122,121,121,121,121,121,120,119,121,121,122,121,121,122,119,123,121,120,121,121,121,121,121,120,121,120,122,121,121,121,119,119,121,121,121,121,121,121,119,122,121,121,122,121,121,122,121,120,122,122,122,121,121,121,121,119,121,121,122,121,121,121,121,120,120,120,121,121,121,122,119,120,122,121,122,121,120,121,120,121,122,121,122,121,121,121,119,121,121,122,122,121,120,120,120
121,122,120,121,121,121,122,120,120,121,121,122,121,121,121,120,121,122,121,121,121,121,121,121,120,122,121,121,120,121,121,120,121,122,121,122,120,121,121,121,119,121,120,122,121,121,122,120,121,120,120,122,121,121,121,119,121,122,122,122,121,121,121,120,121,122,121,121,120,121,121,120,121,122,121,121,121,121,121,121,121,121,120,121,121,121,121,121,121,122,122,122,121,122,123,121,121,121,120,122,121,121,121,120,122,121,120,121,121,121,121,121,118,120,120,121,121,121,122,120,121,122,121,122,121,120,121,121
121,121,121,122,121,121,122,121,120,121,120,121,121,121,122,120,120,121,120,122,121,121,121,119,123,121,120,121,121,121,121,121,119,122,122,122,122,121,121,121,120,122,121,121,121,120,121,120,120,122,121,122,122,122,123,120,119,120,121,122,121,121,121,120,121,121,121,122,122,121,120,120,120,121,120,122,121,121,121,120,120,121,120,122,121,121,121,120,121,121,121,122,121,121,121,121,120,121,120,122,121,121,121,121,121,122,121,122,122,122,121,121,120,121,120,121,121,121,122,120,121,121,120,121,121,121,121,120
121,121,120,121,121,121,121,121,121,122,121,122,122,121,121,119,121,122,122,122,120,121,121,122,120,120,121,122,121,121,121,119,118,121,121,121,121,122,122,121,124,122,120,121,121,121,122,123,121,121,121,122,121,120,121,120,120,121,121,122,121,121,121,120,120,121,121,122,121,122,122,120,119,121,121,122,121,121,121,120,122,121,121,122,121,121,121,121,119,122,121,122,120,120,121,120,119,120,120,122,121,122,121,120,120,122,121,122,121,121,121,120,120,121,121,121,121,121,122,120,120,121,121,122,121,120,120,120
120,122,122,121,120,121,121,121,119,120,121,122,122,121,121,119,120,122,121,122,121,121,122,121,120,121,121,122,121,121,121,121,121,121,121,122,121,121,121,119,120,122,122,121,120,121,122,121,118,120,121,121,121,121,123,120,125,122,121,122,122,121,122,121,119,121,121,122,121,121,120,119,120,121,121,122,121,121,122,119,120,121,121,122,121,121,122,121,120,121,121,122,122,121,121,119,121,122,121,121,120,121,120,120,121,121,122,122,121,120,121,121,119,121,120,121,121,121,121,120,122,122,122,122,122,121,121,120
119,121,121,122,121,121,122,122,120,122,122,122,121,120,121,121,120,120,121,122,121,120,121,120,120,122,121,123,121,120,121,120,120,121,121,122,121,122,122,121,121,122,122,122,121,121,121,120,121,120,120,122,121,121,121,120,119,121,121,122,121,121,122,119,120,122,121,122,122,121,121,120,120,121,121,122,122,121,120,120,120,121,121,122,121,121,120,119,120,122,121,122,122,121,121,120,120,122,121,122,121,122,122,120,121,122,122,122,122,122,122,121,121,122,121,121,120,121,121,121,120,122,121,122,121,120,121,121
120,122,121,122,122,121,121,119,120,122,121,121,120,121,121,120,121,122,121,121,120,120,121,120,120,121,122,122,121,121,121,120,119,120,121,121,121,121,122,120,121,122,121,121,121,121,121,120,121,122,121,122,122,122,122,121,120,122,121,122,121,120,120,119,121,122,121,122,120,121,121,120,120,122,121,121,121,121,122,121,120,121,121,122,121,121,121,120,121,122,121,121,120,121,121,121,120,121,121,122,122,121,121,120,120,122,121,122,121,121,121,121,121,121,121,121,120,121,123,122,120,122,120,122,121,121,121,120
120,121,121,122,122,121,120,120,119,121,120,121,121,121,122,120,120,120,120,122,121,121,122,120,120,122,122,122,121,121,121,121,122,121,120,121,121,121,120,121,120,122,121,122,122,121,121,120,120,121,121,122,121,121,122,121,120,120,120,121,121,121,121,120,121,121,120,121,121,121,121,121,121,122,120,121,120,121,122,122,121,121,121,121,120,121,121,119,123,122,121,121,120,121,121,121,121,122,121,122,122,122,122,120,120,122,121,121,120,121,121,121,121,122,121,121,120,121,122,121,119,121,121,122,121,120,120,119
120,121,121,122,121,121,122,120,121,122,121,121,121,121,121,120,122,121,121,122,121,120,121,122,120,121,120,121,121,121,121,121,122,122,121,121,121,121,121,121,124,122,121,122,121,121,122,121,119,120,121,122,121,121,121,120,120,122,121,121,121,121,121,119,121,122,121,122,120,121,121,121,120,122,121,122,121,120,121,120,120,122,121,122,120,120,122,120,122,121,121,121,121,121,121,121,119,121,121,122,121,121,122,119,120,122,121,122,121,120,121,120,119,122,121,122,122,121,122,119,120,121,121,122,121,121,121,120
121,122,121,122,121,121,121,121,120,121,121,122,121,121,120,120,121,122,121,122,122,121,121,121,120,121,121,122,122,122,121,120,122,121,120,121,121,122,122,121,120,121,121,122,122,121,121,120,120,121,121,122,121,121,122,120,120,122,121,122,122,121,121,120,120,121,122,123,121,120,121,120,120,121,120,121,121,121,121,119,120,122,121,122,120,120,121,120,122,122,121,121,120,121,122,122,120,122,122,122,121,120,121,119,121,121,121,121,120,121,121,121,120,122,121,122,122,121,122,120,122,121,122,122,122,121,122,121
121,122,120,121,121,121,122,121,121,123,121,121,121,121,122,121,121,121,120,121,121,121,122,121,120,122,121,122,121,121,121,119,120,121,120,122,121,121,122,121,120,121,121,122,121,121,122,120,121,122,122,121,121,121,121,121,120,122,121,121,120,121,121,120,123,121,121,122,122,122,121,120,119,120,121,122,122,121,120,120,120,121,121,122,121,121,121,119,119,120,121,122,121,121,122,120,120,121,121,122,122,121,121,120,120,122,120,121,121,121,122,121,124,123,122,122,120,120,121,120,119,121,121,121,120,121,121,119
121,121,120,121,121,121,121,120,120,122,122,122,122,121,121,121,120,122,121,121,120,121,121,121,121,121,120,121,121,121,121,121,121,121,121,122,122,121,121,120,119,120,121,121,121,121,121,120,121,122,121,121,121,121,121,120,120,122,120,121,121,121,121,121,121,122,121,122,122,121,120,121,120,121,121,122,121,121,122,120,121,122,121,122,121,121,122,121,121,122,121,121,120,121,121,120,120,121,121,122,121,121,122,119,121,122,121,123,122,121,121,120,120,121,121,122,122,121,121,120,121,122,121,121,121,121,121,120
118,121,121,122,122,121,121,120,124,121,120,121,121,121,122,121,121,121,121,122,120,121,121,121,119,122,122,122,122,121,121,119,121,122,122,122,120,120,121,121,120,121,121,122,120,120,121,120,121,121,121,122,121,121,121,122,120,122,121,122,122,122,121,120,121,122,121,121,121,121,121,120,120,120,121,121,121,121,121,120,121,122,121,122,120,120,121,120,121,121,120,122,121,121,122,122,118,121,121,122,121,122,123,121,121,122,121,121,121,121,121,120,121,121,120,121,121,121,121,121,119,119,120,121,121,121,121,122
122,122,121,122,121,121,121,120,120,121,121,122,121,121,121,120,121,122,121,121,120,121,121,121,120,121,121,122,121,122,121,120,121,122,122,122,121,121,122,121,120,121,121,122,121,121,122,120,121,122,121,121,121,121,121,121,121,122,120,121,121,121,121,120,120,121,120,122,122,121,120,118,121,122,121,121,121,121,121,121,120,122,121,122,121,120,121,121,121,122,122,122,121,120,120,120,121,122,120,121,121,122,122,121,120,122,122,122,122,121,122,119,121,121,121,122,121,121,122,121,120,121,121,122,121,121,120,120
120,120,121,122,121,121,122,120,120,122,121,121,121,121,121,120,119,121,121,122,121,121,121,120,121,121,121,122,121,121,122,120,120,122,121,122,122,121,120,119,121,122,120,121,121,121,122,121,120,122,122,122,122,122,121,119,121,121,121,122,121,121,121,120,120,121,121,122,121,121,120,120,120,122,121,122,121,121,123,121,121,122,121,122,121,121,121,121,120,121,121,122,122,121,120,119,121,122,121,122,120,120,121,120,120,120,120,122,121,121,122,120,121,122,121,122,121,120,121,121,120,121,121,122,122,121,120,119
121,122,120,122,121,121,123,121,119,121,121,122,121,121,121,119,122,122,121,122,121,120,121,120,121,122,121,121,121,121,121,121,120,120,121,122,121,121,122,120,120,121,121,122,121,121,121,121,120,121,121,122,121,121,120,120,121,122,121,122,121,121,122,121,120,122,121,121,120,121,121,120,122,121,120,121,121,121,122,121,121,122,121,122,122,121,121,121,119,122,121,121,120,121,121,120,121,121,121,122,122,121,121,121,121,123,121,122,120,120,121,120,120,121,121,122,121,120,119,119,120,121,121,122,122,121,121,120
121,122,121,122,121,121,121,119,120,121,121,122,121,121,121,120,120,121,121,122,121,121,121,119,120,121,121,121,120,121,122,121,121,121,120,121,121,121,121,121,121,122,121,123,122,121,122,120,119,120,120,122,121,121,122,121,119,120,121,122,121,121,121,120,120,120,120,121,121,121,122,121,120,122,121,122,121,121,121,120,120,121,120,121,121,121,121,121,121,121,120,121,122,121,122,120,120,121,121,122,121,121,121,120,120,122,121,122,121,121,121,120,121,122,120,121,120,121,121,121,121,122,120,121,121,121,123,122
121,121,121,121,121,121,122,120,120,121,120,121,121,121,122,121,123,121,121,122,121,122,122,121,121,121,121,121,121,121,121,121,120,122,120,121,121,121,122,121,120,121,120,122,121,121,123,121,120,121,121,121,120,121,121,119,120,121,120,121,121,121,121,119,120,122,120,121,121,121,122,123,120,122,120,121,121,121,120,120,120,122,121,122,120,120,121,119,119,121,121,122,121,121,120,121,121,121,121,121,121,121,121,119,120,121,120,121,121,121,122,124,120,122,121,122,121,120,121,121,121,122,121,122,122,121,121,116
120,121,121,122,121,121,122,123,117,121,121,121,121,121,121,116,123,123,121,121,121,121,121,119,122,123,122,123,123,122,123,124,117,121,121,122,121,121,120,119,119,122,121,121,121,121,121,119,120,121,121,122,121,121,120,121,121,122,121,121,120,121,121,118,121,122,121,122,121,121,122,121,120,121,121,122,121,120,120,119,119,121,121,122,121,121,121,120,122,121,120,121,121,121,122,119,123,122,122,122,122,122,122,122,119,121,121,121,121,122,123,124,120,122,122,122,122,121,120,117,119,120,121,122,121,121,121,119
120,122,121,123,122,121,121,119,121,122,121,122,122,122,121,118,122,121,121,121,120,120,121,123,116,120,121,121,121,122,121,121,122,122,122,122,121,117,120,117,122,121,121,122,121,127,123,125,120,122,121,123,122,123,119,121,121,122,121,122,121,124,121,117,122,122,121,122,120,115,121,125,117,122,122,122,122,127,121,112,118,119,120,122,124,133,115,126,133,123,121,122,122,120,123,126,116,121,121,121,123,124,121,117,119,123,123,123,120,120,125,121,118,123,121,121,122,114,136,121,122,125,119,120,129,160,115,116
120,121,123,113,112,121,120,122,116,125,124,145,125,102,128,123,126,121,121,123,119,158,113,119,116,118,117,111,122,144,105,113,117,120,118,110,116,148,131,126,121,118,123,146,132,133,133,122,123,119,120,117,113,76,99,125,116,125,123,123,122,131,130,119,134,122,116,110,115,92,96,117,135,119,122,127,114,85,118,122,114,121,118,107,105,125,119,111,122,124,121,128,125,97,109,114,103,90,128,111,120,123,114,125,118,128,123,143,123,230,135,128,130,117,113,108,124,69,126,102,158,116,111,101,95,136,168,159
101,140,126,148,136,83,91,94,157,116,116,127,125,203,148,131,76,147,121,106,89,129,99,109,175,119,130,146,141,85,106,119,114,115,118,131,131,126,149,111,92,104,111,63,90,97,77,131,148,139,130,177,150,200,126,113,122,117,121,100,112,113,147,114,151,131,123,119,148,145,121,103,104,119,119,120,119,99,92,109,115,136,122,126,125,91,107,109,124,99,116,111,117,181,109,128,123,130,121,117,119,136,112,126,123,126,124,132,110,81,137,128,120,119,119,112,112,160,128,123,94,138,126,124,117,126,126,120
150,119,125,140,146,138,133,119,93,115,122,107,89,113,119,120,126,123,118,124,121,131,90,121,124,121,108,95,109,123,111,121,98,118,119,124,122,84,122,124,134,155,131,123,123,120,113,117,68,65,111,109,113,154,115,131,120,144,127,126,127,124,123,123,120,116,119,116,120,103,115,117,114,124,121,125,118,139,124,118,136,124,122,124,132,173,160,125,109,129,124,112,112,119,134,120,144,110,116,124,123,113,99,119,133,125,123,138,101,187,145,118,90,123,120,120,156,114,121,121,145,121,124,123,117,91,91,119
116,125,125,121,120,117,98,118,116,119,112,104,112,143,125,123,117,121,126,128,140,182,140,124,113,125,125,127,115,74,119,124,130,121,118,110,107,115,72,119,118,131,122,133,150,145,155,122,109,128,123,101,124,78,90,128,130,115,119,105,97,86,135,112,120,114,122,123,130,134,116,128,113,124,115,112,126,111,98,114,123,117,121,132,132,124,116,122,123,122,121,106,114,109,86,126,119,119,119,111,110,105,129,121,120,129,124,164,159,96,129,118,112,112,125,106,89,121,152,133,111,117,112,123,113,95,113,111
133,121,122,131,122,87,105,124,117,126,123,140,111,126,100,120,104,132,124,121,117,81,126,118,125,114,118,105,130,117,135,123,108,117,149,120,115,109,91,118,100,112,43,86,98,102,85,106,121,131,150,136,145,109,167,129,109,105,102,91,82,136,115,128,111,126,134,154,130,127,106,117,103,121,111,97,127,126,109,113,94,125,122,156,111,85,118,117,180,99,119,113,116,118,106,126,99,127,120,118,124,127,77,117,91,129,116,117,122,130,156,114,127,129,127,125,122,162,122,116,147,118,123,119,120,132,111,120
117,114,116,118,106,88,98,115,75,112,123,118,117,121,146,119,147,122,132,111,125,102,95,122,107,126,111,112,106,110,91,114,120,122,111,123,121,127,139,117,140,121,111,117,107,122,103,121,161,91,121,123,116,127,100,115,103,129,116,95,127,164,143,129,128,128,129,100,120,92,151,117,104,121,124,152,101,133,114,112,116,113,118,91,135,66,102,114,139,131,130,138,132,133,138,130,121,131,119,111,118,97,115,118,89,125,120,113,123,101,117,120,104,122,124,138,121,115,112,111,169,119,116,85,111,119,145,117
124,139,129,178,151,119,129,119,99,113,117,106,85,97,91,118,123,122,115,99,150,148,150,121,103,112,123,124,111,90,114,113,149,109,131,154,150,133,113,124,122,134,109,98,108,26,68,117,117,122,131,114,121,165,174,120,133,120,133,130,128,109,125,112,116,124,127,101,111,83,96,117,118,113,103,134,118,140,113,119,164,122,125,131,129,126,109,122,72,133,120,113,116,103,126,116,117,120,115,111,121,109,106,117,121,130,124,122,112,203,109,124,96,124,125,133,124,118,124,112,120,131,111,97,128,64,105,117
174,90,119,131,126,171,146,131,113,116,132,164,127,125,172,130,114,122,101,104,114,143,106,117,122,128,143,123,120,125,131,116,122,127,94,116,131,120,128,120,96,121,132,125,126,133,129,121,117,130,127,126,119,115,100,121,130,100,124,129,126,73,117,127,126,128,118,118,121,96,132,125,114,116,121,143,146,89,94,120,165,123,123,120,127,155,102,121,103,110,119,117,113,111,128,119,99,118,119,107,115,117,107,130,164,126,124,138,133,84,114,113,89,115,115,116,112,113,127,116,115,137,124,116,130,133,121,117
130,100,117,129,121,191,130,123,128,128,122,141,140,128,92,126,111,121,136,124,126,112,92,120,122,122,98,166,133,159,123,122,115,122,135,118,119,103,94,123,111,119,88,94,115,194,124,116,119,121,133,160,143,124,165,126,116,132,148,118,102,120,89,118,147,103,79,105,116,115,110,116,130,129,131,156,147,112,119,128,95,124,126,113,122,134,122,121,136,118,118,127,115,122,124,113,119,128,127,121,122,160,111,134,126,128,118,108,130,114,78,115,70,108,119,125,122,73,111,121,134,118,124,119,121,137,210,130
152,119,119,114,105,111,106,116,117,119,120,122,128,113,143,121,110,124,121,110,112,138,85,124,135,122,132,156,164,83,123,119,69,141,115,112,104,107,127,106,193,102,124,123,124,162,113,133,107,121,115,105,109,119,89,113,119,127,126,120,115,153,151,121,121,123,145,135,132,135,115,130,107,115,76,103,116,93,108,115,124,125,124,114,96,112,106,116,105,113,128,119,116,121,134,121,112,100,107,98,105,118,99,121,119,127,127,146,113,144,123,124,122,121,122,124,141,112,91,119,119,122,126,167,121,137,170,123
110,121,121,115,113,112,78,122,103,121,117,124,117,83,84,120,144,142,131,127,126,139,170,120,69,100,118,122,124,153,133,129,174,111,118,121,117,102,116,122,114,127,120,105,105,119,110,116,75,128,121,137,115,114,120,116,134,105,121,107,116,122,100,126,122,129,130,134,122,136,161,124,128,125,114,104,111,89,119,120,103,128,114,115,117,145,100,111,131,112,125,121,114,67,137,121,120,122,120,125,124,126,117,117,124,123,112,114,100,120,89,110,119,126,121,116,121,113,170,128,123,113,123,121,114,122,157,123
115,124,125,117,130,172,115,117,84,126,115,112,111,154,115,106,142,120,123,135,145,128,119,134,123,126,128,118,118,121,145,118,111,118,117,106,118,138,112,119,124,112,117,125,120,95,117,120,119,121,122,114,121,157,129,121,111,123,129,126,125,111,112,114,115,120,111,117,126,154,113,127,109,119,127,137,127,116,119,123,136,120,123,131,120,70,87,113,121,127,137,109,82,155,189,123,121,119,89,113,108,105,108,122,119,121,117,113,121,109,112,118,131,124,123,116,120,115,109,119,103,119,121,127,122,116,123,123
131,121,118,81,89,127,118,116,129,129,130,206,169,126,182,121,123,128,125,121,113,118,108,119,124,130,119,113,117,109,104,119,101,119,118,122,133,140,126,112,134,121,121,118,113,103,138,121,111,126,128,125,131,136,149,123,132,118,119,135,124,104,114,122,119,119,115,123,119,140,120,120,114,124,126,126,125,112,133,119,124,122,113,99,107,105,108,120,126,126,138,150,124,115,107,118,133,118,125,149,128,117,165,118,116,118,111,117,121,86,120,119,114,121,126,117,114,122,108,123,132,113,120,124,121,139,119,124
117,121,126,123,114,111,113,114,114,124,110,126,116,147,125,113,128,117,118,86,110,95,109,124,107,126,130,145,132,189,133,124,134,116,119,106,114,98,99,114,118,123,114,123,142,99,100,119,133,125,125,125,112,122,154,110,96,120,121,117,115,117,113,118,112,116,123,119,128,114,120,116,132,123,115,129,111,118,108,136,121,123,123,119,137,129,122,111,111,123,122,121,122,180,103,122,116,119,119,114,116,120,135,124,115,122,119,124,111,157,115,127,107,118,128,120,123,105,138,123,137,122,105,115,121,73,137,135
113,123,131,128,126,125,98,114,153,122,122,103,109,117,122,116,123,114,111,119,129,130,119,123,118,126,127,175,141,115,106,110,124,126,125,114,133,92,148,114,120,120,123,112,121,125,111,126,130,123,117,104,113,108,122,131,119,121,126,135,121,116,77,116,129,133,122,125,123,131,155,116,123,102,118,103,112,113,105,131,119,132,129,127,150,41,104,132,98,127,126,117,115,133,125,109,111,110,108,110,106,81,104,128,121,127,135,141,138,175,114,117,126,123,116,125,120,130,101,116,113,124,126,99,96,131,134,125
137,115,121,141,131,156,116,131,103,117,118,116,122,118,107,116,121,120,123,107,120,125,106,119,141,121,111,137,141,84,116,125,118,124,138,118,119,113,133,126,103,119,107,118,123,129,141,118,120,125,126,126,122,94,105,123,118,113,126,111,115,132,122,116,100,129,106,116,116,121,116,116,136,120,119,117,129,184,127,126,116,123,127,134,119,106,97,122,121,121,122,116,113,112,114,117,117,124,124,136,119,119,119,113,109,120,135,123,123,122,131,123,121,117,101,119,125,131,119,111,111,129,130,120,129,119,123,117
102,114,115,116,122,142,119,118,100,120,123,117,104,111,120,137,147,121,120,117,128,125,124,105,147,121,124,133,116,107,114,134,108,114,125,123,123,121,111,114,142,113,113,115,121,127,113,129,108,123,131,123,101,136,142,107,117,123,111,121,117,116,113,115,117,123,114,111,118,107,112,120,99,125,132,129,123,98,106,117,128,118,121,113,114,159,125,117,102,121,126,123,118,88,100,118,123,123,128,130,148,130,131,126,114,124,105,116,119,118,123,115,128,121,127,121,115,115,120,111,122,120,121,150,132,181,125,115
120,129,123,117,123,125,152,126,135,121,122,130,124,109,118,134,176,101,114,115,116,106,119,126,110,130,128,124,139,127,118,118,113,123,124,104,108,110,111,111,138,128,104,115,117,157,118,137,134,114,124,140,116,133,120,122,121,122,126,114,114,127,109,125,137,125,124,126,126,120,126,120,104,121,93,118,125,145,120,119,112,120,152,142,128,138,129,120,100,127,110,108,116,115,112,116,124,114,120,129,120,119,116,114,126,127,123,116,116,119,131,128,100,137,134,125,118,119,120,113,178,110,108,123,112,101,113,125
118,122,127,126,123,116,119,120,110,122,120,118,105,109,106,110,135,115,120,120,131,134,134,126,143,123,123,121,119,115,116,116,117,123,114,113,114,122,104,106,122,127,125,125,120,101,124,137,121,119,120,101,113,145,138,121,108,118,128,119,136,109,104,110,107,117,115,111,114,128,130,132,140,119,118,119,117,120,111,134,124,123,110,142,122,109,116,113,128,119,141,131,118,121,124,117,121,124,113,122,113,110,100,109,116,121,130,133,127,136,121,148,123,123,134,137,120,115,117,103,118,123,96,119,121,119,120,117
131,122,126,124,120,117,118,119,145,120,123,121,122,126,128,124,124,124,116,120,118,117,119,125,131,109,120,130,125,135,125,120,125,125,120,122,121,121,122,120,120,124,125,122,121,118,122,116,121,121,113,115,123,124,120,108,129,125,122,120,121,135,126,130,111,110,127,121,123,123,121,125,119,125,113,118,123,111,117,119,120,124,133,131,118,121,121,119,124,122,109,105,112,125,120,115,119,119,127,129,135,116,133,117,130,121,120,126,120,124,124,119,122,122,127,127,115,117,117,118,117,114,129,146,119,99,122,115
119,124,122,121,126,130,122,112,112,127,113,123,116,114,114,128,128,115,119,125,117,121,144,127,123,118,125,122,121,116,93,123,117,115,120,123,121,117,118,115,140,122,121,109,113,109,119,118,117,128,126,143,128,129,119,121,131,122,106,109,121,119,117,130,119,122,128,129,117,119,116,115,136,121,120,109,121,121,132,109,135,128,125,118,121,85,120,124,130,122,123,121,125,129,130,121,118,121,119,119,119,146,113,122,128,129,125,133,126,149,128,112,125,112,126,153,124,119,125,133,124,125,141,126,127,128,124,117
114,121,101,97,111,115,110,121,102,123,130,141,125,124,132,121,119,111,116,143,119,121,117,126,118,124,129,125,122,135,123,106,117,128,124,121,122,115,119,127,123,119,123,118,116,127,117,111,112,122,119,118,117,120,120,123,141,124,120,119,124,132,125,132,130,116,124,131,124,83,84,125,122,129,124,122,125,115,126,121,114,117,120,114,118,115,138,132,141,120,125,121,121,114,121,110,120,123,120,123,119,114,116,117,121,124,121,123,120,117,119,118,133,118,112,114,119,109,116,127,124,127,119,118,123,129,127,124
119,121,130,121,116,99,122,120,120,125,113,116,121,134,118,130,117,112,125,138,129,145,124,125,124,122,123,124,110,81,114,126,129,126,123,122,136,128,132,137,123,120,122,123,118,137,124,120,113,124,128,118,121,117,116,103,131,126,117,125,120,119,122,130,119,119,128,115,115,130,114,112,117,115,120,105,111,99,137,125,118,121,122,138,129,108,118,122,121,126,121,115,124,135,117,119,120,124,122,123,124,118,119,124,125,120,119,120,115,117,120,121,130,127,138,125,120,122,118,116,118,117,97,117,120,102,118,123
127,120,117,117,117,123,126,120,136,117,124,126,120,123,119,124,115,123,132,120,124,112,116,123,119,125,103,128,117,82,126,116,120,123,133,132,121,144,122,114,126,116,114,112,129,130,131,138,105,120,115,103,103,110,125,117,126,123,126,144,147,175,114,112,133,118,124,120,121,143,131,119,120,122,121,134,120,117,122,117,119,129,121,115,121,120,128,138,123,110,116,116,110,110,118,109,122,130,129,122,125,136,125,109,148,127,115,133,126,121,105,130,121,118,124,117,121,134,125,111,116,119,114,117,118,113,114,115
109,126,126,125,124,109,110,122,130,125,119,121,120,124,128,121,112,119,124,144,132,122,129,126,116,124,124,116,124,130,125,118,119,119,116,115,123,145,113,114,118,122,137,127,111,110,126,116,137,119,83,111,120,150,124,134,122,122,119,121,122,131,126,112,122,116,124,131,119,118,120,111,105,123,125,124,127,110,117,125,120,119,121,121,121,124,121,117,130,123,124,120,117,127,112,121,126,121,115,130,126,115,115,110,117,123,121,125,121,129,122,124,114,121,126,125,121,128,116,116,111,126,119,117,126,135,127,110
132,111,120,106,107,133,113,118,122,124,126,152,128,129,132,143,126,122,108,110,129,80,118,111,129,121,124,117,110,141,118,125,114,124,132,127,125,115,138,114,116,121,106,114,118,116,113,127,124,124,112,116,122,127,119,127,119,119,119,125,117,118,121,114,115,120,132,125,117,127,122,117,111,121,98,114,120,127,123,124,116,117,122,123,120,127,124,117,113,127,119,116,118,110,120,111,119,123,124,119,125,146,127,114,112,123,119,121,125,112,119,121,109,112,122,123,118,119,127,116,122,124,122,121,124,147,133,126
120,120,117,115,117,108,111,124,119,122,118,119,117,108,123,125,126,123,122,122,120,116,123,114,141,116,123,128,123,143,120,118,127,122,117,114,118,106,121,118,120,124,124,126,123,119,117,114,132,117,119,129,119,137,123,142,123,123,117,120,122,120,123,116,126,123,121,119,126,135,125,122,131,121,132,124,114,120,120,109,119,122,90,121,119,109,119,125,122,124,140,126,130,120,120,118,118,121,121,124,120,113,117,120,129,119,121,120,118,114,122,113,126,124,126,124,129,142,118,123,137,121,122,122,120,107,118,143
124,120,123,118,117,127,117,110,115,120,118,126,122,119,115,112,123,121,119,118,113,100,114,115,116,119,120,123,124,121,123,118,119,124,122,119,121,119,117,120,127,118,122,123,117,135,121,118,118,123,123,125,123,121,113,130,111,122,117,117,126,123,121,117,106,112,119,118,123,127,116,120,105,130,122,119,130,123,124,113,105,106,111,127,120,101,118,117,122,125,121,113,119,132,121,111,109,121,119,126,118,107,122,130,128,117,124,131,122,122,117,108,119,123,105,113,123,116,124,126,113,125,123,118,110,132,121,109
101,112,123,121,121,117,121,129,123,125,127,125,122,116,121,117,123,123,120,117,122,117,115,124,127,120,121,122,119,130,134,121,128,122,118,117,123,114,135,123,110,121,119,116,111,124,120,120,123,123,123,130,121,118,118,124,120,123,123,124,126,111,121,119,133,125,127,112,119,127,121,108,109,111,109,145,128,117,126,134,119,124,129,120,120,115,118,111,114,124,112,115,120,119,118,113,100,116,119,118,119,141,122,123,128,126,124,127,119,108,126,136,105,122,120,110,122,162,123,107,122,120,129,125,119,122,127,119
124,121,115,115,121,125,113,121,115,119,124,127,124,115,130,117,116,122,113,120,121,118,128,123,122,124,130,120,120,139,122,111,114,128,115,116,118,119,117,131,145,106,120,110,118,130,130,118,128,128,122,131,128,120,120,132,111,126,125,122,120,128,118,109,129,118,113,108,114,130,123,139,131,125,127,122,120,112,110,117,109,122,120,125,119,92,128,112,122,118,127,131,127,189,130,135,113,121,127,116,119,118,109,110,118,115,112,108,113,110,120,126,124,121,126,122,121,115,123,123,115,124,118,122,122,114,119,123
122,124,124,117,120,127,116,116,116,120,122,121,114,117,123,120,137,128,124,125,129,142,119,118,119,115,120,112,109,119,113,128,118,123,123,137,138,132,136,128,108,121,122,121,121,102,118,106,127,120,128,123,120,124,114,131,115,122,111,115,120,116,119,110,122,120,116,121,123,114,118,119,118,121,117,118,116,121,119,112,116,127,126,130,119,128,124,123,128,119,120,106,128,112,120,122,115,119,119,140,126,102,127,116,124,115,122,116,116,116,127,117,103,119,112,117,120,122,126,127,124,120,121,124,122,112,114,124
121,121,124,124,126,127,125,120,127,127,127,115,119,105,137,119,125,120,121,122,119,136,119,121,121,126,126,122,124,130,121,115,115,118,112,124,119,125,123,123,121,123,127,122,114,106,128,115,131,120,121,116,118,116,115,124,120,124,121,126,121,118,122,129,124,121,119,117,117,124,116,117,118,122,125,113,121,123,124,120,115,120,123,128,124,128,120,131,118,121,113,117,118,117,119,120,121,122,124,119,117,118,116,126,122,123,134,127,118,120,124,117,123,124,109,114,137,130,130,132,120,126,125,125,121,132,117,112
111,117,119,116,118,109,116,123,125,122,118,133,122,140,123,119,121,124,122,120,122,118,132,119,121,120,119,120,120,121,109,114,130,124,126,124,122,118,122,137,110,119,115,114,125,149,121,102,121,122,123,136,118,86,99,126,140,117,124,125,128,133,140,124,128,126,108,121,120,129,117,113,106,119,123,121,117,113,118,126,121,121,119,116,117,121,113,116,110,123,128,127,123,113,125,117,119,119,108,123,121,151,123,112,123,122,122,122,121,118,122,124,117,123,125,121,120,112,117,125,115,120,120,118,120,122,119,111
116,123,122,121,122,128,131,111,108,119,120,123,120,118,124,117,157,120,118,122,123,120,119,139,116,127,124,123,122,116,124,112,114,121,121,125,121,121,126,121,123,121,119,117,120,119,120,121,117,122,120,118,115,111,119,117,117,123,128,123,123,129,123,122,130,120,118,116,123,127,119,124,120,123,118,123,123,130,121,115,118,124,114,117,116,122,124,122,130,115,123,146,128,112,117,130,124,123,127,122,122,126,131,110,122,121,122,122,126,148,132,125,128,118,119,121,118,111,117,125,120,123,122,123,121,121,119,121
114,121,131,122,121,106,115,114,136,124,112,114,113,117,134,120,98,115,121,131,125,141,129,127,132,124,127,128,123,101,126,117,125,128,124,119,118,125,118,114,108,112,121,122,127,133,134,124,116,123,117,128,122,121,110,118,141,117,119,116,120,119,120,125,125,125,125,115,112,120,121,121,121,124,122,132,139,116,121,127,120,121,118,114,118,125,121,118,115,120,126,136,132,129,127,115,123,116,118,117,119,120,115,122,129,124,122,119,129,119,120,111,115,120,119,122,119,128,133,115,141,122,123,124,121,139,112,151
123,115,119,118,123,129,117,117,111,123,110,121,119,100,124,121,129,119,123,122,119,123,121,121,134,122,122,123,123,125,137,121,126,116,121,124,123,118,119,125,110,124,122,132,126,124,122,123,112,129,120,114,115,121,119,119,116,105,118,118,117,114,122,119,115,122,121,126,130,114,121,124,120,122,122,123,123,120,125,123,117,123,122,121,121,128,120,110,122,120,120,121,125,123,122,119,119,121,120,125,124,127,117,119,116,127,114,112,121,130,128,121,113,110,120,118,122,118,129,113,141,120,121,120,116,121,124,121
126,123,124,138,136,127,119,124,123,124,123,125,120,121,128,121,115,122,120,116,116,112,121,115,116,123,120,119,123,130,124,130,131,120,125,119,119,116,124,118,116,114,116,137,118,99,121,114,117,125,123,123,124,116,134,116,132,121,122,121,118,116,131,131,115,119,135,125,121,125,114,125,119,122,101,101,120,104,125,133,105,120,116,130,119,131,117,102,137,111,123,120,125,124,127,138,118,124,123,124,123,129,143,121,121,122,127,120,118,117,120,123,125,124,116,132,130,113,120,114,117,120,124,118,120,130,112,135
123,124,124,119,117,135,135,118,121,121,124,122,126,123,119,126,123,124,116,119,119,119,117,105,116,118,122,121,121,113,118,134,118,122,127,124,122,125,135,121,115,119,110,114,120,105,123,115,135,120,124,123,125,131,129,119,116,122,119,117,119,114,114,120,124,121,109,108,119,136,118,117,126,119,126,126,115,125,132,119,121,125,126,128,123,112,119,129,121,122,111,116,121,127,119,116,129,120,124,122,114,121,118,117,124,128,122,122,123,132,119,119,130,113,125,127,121,106,126,134,105,119,116,118,117,131,117,111
128,126,122,125,122,138,119,134,127,120,117,117,122,119,127,128,98,123,126,119,117,108,120,108,118,110,113,118,110,116,116,120,125,126,123,111,130,117,121,114,119,124,122,125,124,124,125,129,122,123,121,115,108,123,121,119,124,124,119,108,113,115,124,117,130,119,121,139,126,134,125,146,134,113,116,112,101,118,114,121,122,125,126,118,133,123,128,128,119,124,119,140,134,102,122,125,114,123,119,92,101,117,115,114,98,123,126,166,125,123,121,110,143,122,125,119,125,124,113,126,145,117,110,112,121,108,113,121
127,122,125,104,89,145,132,132,115,124,124,145,155,91,114,119,137,121,123,125,111,119,122,122,121,121,119,120,122,109,135,108,120,121,121,119,118,114,124,121,116,127,123,125,124,121,121,118,116,112,118,119,118,114,116,119,120,121,120,124,124,114,120,111,120,124,121,118,113,116,115,114,121,128,123,128,126,150,133,120,137,105,118,120,122,114,136,124,112,123,122,114,114,106,122,115,126,124,139,129,130,103,121,118,113,117,96,114,104,93,105,122,114,118,113,149,150,145,141,116,132,121,126,112,117,118,100,117
124,122,128,114,125,113,117,122,121,121,110,123,123,109,119,120,122,123,127,120,116,122,113,119,113,122,119,124,125,103,128,112,126,120,126,121,119,123,115,121,121,125,112,111,116,135,121,121,113,116,121,122,121,134,124,130,130,120,120,122,118,109,103,117,116,123,121,109,116,117,116,115,124,124,115,122,121,105,111,116,116,122,128,121,122,133,125,122,135,121,122,122,121,118,125,121,119,120,124,120,121,112,128,125,115,118,122,124,123,118,118,117,135,117,121,125,126,121,117,120,118,123,119,119,122,131,126,128
128,126,125,122,117,120,122,118,94,119,123,119,118,116,113,108,131,119,117,124,130,153,134,137,97,123,121,117,98,99,129,116,133,119,116,98,142,116,119,119,116,123,125,142,112,98,124,118,123,122,126,127,123,130,112,129,127,117,118,124,129,122,125,117,117,127,120,125,117,133,115,115,136,120,125,124,125,116,147,126,117,123,130,119,105,119,118,120,114,124,115,132,139,114,126,116,123,120,123,113,121,122,125,120,126,118,122,117,107,115,121,119,132,127,121,142,154,135,139,119,105,123,122,120,121,137,119,121
121,121,121,123,117,110,116,115,117,124,122,123,120,122,123,121,105,126,123,113,111,124,125,124,111,116,118,111,127,101,135,121,119,119,125,121,119,117,123,121,115,125,122,121,120,98,141,123,121,119,119,107,114,116,116,115,122,124,122,121,113,116,117,122,119,120,122,116,125,115,122,124,120,123,123,127,107,159,137,123,111,114,124,119,122,112,111,112,116,120,109,98,126,121,118,117,113,128,128,139,124,115,121,125,129,121,116,116,116,133,135,108,123,122,119,126,125,135,120,121,115,120,122,116,123,104,113,127
116,128,125,124,117,119,122,110,115,112,119,124,119,101,113,120,127,124,121,118,129,131,129,128,112,121,120,114,116,124,118,112,112,122,114,113,120,116,113,124,116,119,123,112,122,120,125,133,128,125,120,132,118,114,114,111,119,113,122,114,129,133,126,131,130,124,114,117,120,97,122,114,121,122,117,122,121,118,118,126,123,122,128,119,134,139,120,130,118,119,113,119,111,115,115,111,103,117,123,117,135,121,120,117,128,122,124,121,120,114,130,124,131,123,124,121,119,120,122,124,126,122,122,127,130,128,130,123
123,126,129,123,117,92,110,111,118,114,108,111,125,113,116,116,124,126,123,106,110,100,121,117,130,123,126,139,128,130,123,125,126,121,121,118,122,116,112,116,118,123,120,113,128,122,118,112,131,123,120,124,118,112,123,123,118,124,127,125,113,123,126,114,126,128,121,123,129,130,119,121,123,115,117,122,116,122,125,120,122,121,124,130,123,117,119,131,126,122,122,114,119,101,117,113,122,124,123,127,115,128,126,117,119,117,117,113,121,116,120,130,121,124,126,125,122,120,120,120,115,122,123,109,124,113,114,119
144,124,132,122,110,123,116,115,108,119,110,134,141,121,132,118,114,123,125,120,119,117,101,126,116,120,116,116,117,117,126,115,117,119,119,121,121,122,117,115,117,126,125,133,135,127,116,112,125,112,121,135,127,124,121,120,120,125,119,126,119,121,123,133,120,125,124,125,120,141,116,118,122,119,118,116,118,127,132,116,103,120,122,120,118,119,117,118,129,117,118,121,120,118,125,119,122,118,114,134,127,136,121,116,122,127,128,129,115,121,119,114,117,115,117,118,118,95,112,120,116,123,121,119,124,116,122,122
113,120,118,133,135,121,115,124,123,124,131,123,118,116,126,119,118,121,112,121,119,117,132,115,119,123,114,117,120,119,116,133,146,119,124,122,121,121,125,116,96,124,122,123,123,119,114,113,123,119,126,120,121,121,136,126,113,125,115,116,122,141,107,120,125,126,123,124,110,132,120,123,118,115,119,117,121,118,125,118,120,124,123,119,120,123,118,119,124,124,117,119,110,123,119,118,95,120,126,155,136,148,124,118,134,118,115,126,113,110,113,119,118,123,123,119,121,130,119,133,126,125,123,123,124,92,121,129
115,119,122,126,121,117,124,117,113,121,118,127,123,118,110,120,122,122,123,114,118,122,125,123,128,122,118,112,114,117,118,122,121,122,124,123,131,115,124,119,121,125,127,122,121,120,129,123,113,119,101,110,117,119,118,119,122,123,129,120,125,113,121,117,117,125,120,120,123,126,125,125,120,116,119,127,131,110,115,113,112,118,124,122,117,115,121,127,149,124,124,122,119,119,133,119,143,121,120,117,115,124,116,125,119,120,121,120,117,125,114,114,121,120,115,111,112,112,119,112,132,124,121,126,129,136,130,130
137,116,119,115,117,129,121,111,122,121,122,127,122,117,101,119,118,126,120,104,124,126,120,114,112,118,121,167,131,116,117,121,133,122,123,123,122,117,122,121,119,124,115,119,121,117,116,115,110,120,125,118,115,127,119,118,139,122,121,124,126,117,125,120,113,119,103,113,119,128,119,124,123,124,123,126,123,115,120,124,117,120,125,122,122,143,144,117,121,123,125,120,114,130,124,120,129,119,112,104,120,125,112,117,106,122,123,136,126,144,118,127,119,123,122,114,112,122,128,107,126,125,119,134,134,138,122,123
126,117,122,125,119,122,121,121,119,123,116,102,110,103,119,117,123,124,123,131,120,130,126,118,128,118,120,122,122,120,120,117,120,121,122,121,121,120,117,113,118,123,121,121,121,138,120,110,123,123,122,120,118,117,120,114,131,125,120,123,125,119,122,124,106,111,120,119,119,122,127,122,124,126,127,126,122,122,120,121,124,123,126,110,112,109,119,130,123,122,106,133,136,171,126,125,121,122,130,122,119,110,123,118,117,120,120,118,116,110,118,119,123,123,124,130,114,114,122,121,118,121,121,118,136,128,128,121
123,122,122,121,120,128,123,120,118,122,120,125,121,126,119,121,130,121,121,120,118,117,116,122,109,122,123,123,123,122,126,119,126,121,117,115,113,125,125,119,129,125,122,123,121,118,125,121,131,124,122,117,115,119,125,115,124,114,128,120,123,136,123,127,130,123,108,126,120,116,120,120,108,118,124,129,126,137,120,113,123,120,119,121,116,130,120,125,135,126,125,125,125,121,122,126,123,120,126,123,120,118,117,114,105,117,113,110,119,115,124,125,118,122,126,137,126,106,119,120,128,123,112,119,119,135,119,120
114,126,125,125,122,106,126,116,127,113,122,126,124,118,112,127,118,125,125,123,121,119,124,125,122,123,121,121,119,116,119,114,117,122,110,112,119,115,116,118,122,113,126,129,124,113,139,141,125,125,124,126,123,123,123,120,119,123,122,120,116,122,118,122,119,124,120,117,129,122,118,122,117,119,120,132,124,117,122,118,120,120,120,121,122,122,119,123,115,121,122,125,121,140,122,117,113,119,121,114,124,121,110,119,135,122,128,128,131,128,135,120,120,126,111,114,105,117,111,124,119,118,121,123,136,114,112,117
143,120,122,105,109,126,151,127,116,123,123,127,129,107,108,119,114,127,124,113,114,124,121,117,128,119,121,141,127,127,121,125,111,119,119,99,119,119,124,117,133,118,119,144,138,121,124,123,118,123,125,127,121,138,123,119,125,124,124,114,117,117,124,128,118,122,116,120,117,118,125,114,113,123,120,114,121,129,121,121,145,116,125,126,121,140,118,122,114,123,116,124,127,121,107,112,109,120,124,122,118,121,122,123,134,125,118,120,121,114,117,115,113,119,128,126,123,114,116,113,126,129,113,121,118,128,128,121
129,119,127,128,125,122,117,123,118,122,122,117,116,106,120,114,136,122,116,125,121,120,120,120,117,124,128,123,112,119,121,122,118,126,119,117,127,93,119,116,109,111,116,113,115,121,113,122,119,124,122,114,137,124,118,111,109,120,122,113,107,104,115,119,121,121,127,120,123,119,130,128,130,120,113,119,118,118,121,122,116,123,119,114,116,112,114,117,125,120,123,117,139,135,124,124,112,124,123,122,124,123,143,122,120,112,121,119,118,117,112,115,118,125,118,107,115,112,118,123,118,123,127,139,124,127,108,124
112,122,116,114,116,126,118,117,100,122,128,127,128,147,130,118,129,119,114,122,117,116,127,125,120,122,122,116,117,103,104,114,123,125,125,119,120,134,124,117,116,117,116,114,139,121,115,120,136,125,124,145,129,111,120,122,129,122,123,117,114,109,120,121,122,124,124,119,121,121,133,122,116,122,119,119,119,113,109,112,118,121,118,112,121,129,119,117,136,117,122,133,125,106,131,129,127,128,123,113,115,113,121,120,130,119,124,134,122,122,112,123,102,121,127,116,116,124,128,122,111,115,112,119,115,121,118,121
121,125,125,119,118,122,120,123,123,122,123,130,133,119,119,122,119,122,123,115,111,125,125,117,106,122,119,123,122,146,124,118,118,122,122,124,126,99,120,122,119,120,121,121,119,122,117,115,109,123,121,131,121,107,121,115,129,122,120,126,123,138,124,123,107,125,120,119,120,116,114,118,132,120,120,122,122,118,129,117,120,122,126,116,115,117,116,125,125,122,120,126,121,123,139,117,123,120,105,113,125,131,122,125,121,126,127,117,103,117,115,119,119,116,117,113,132,99,119,118,127,122,119,161,136,121,131,122
132,125,124,123,123,116,120,120,95,121,122,112,117,119,121,114,136,123,124,122,121,115,116,115,117,126,116,124,125,123,121,121,119,123,125,122,121,123,127,118,124,124,124,118,121,120,118,115,111,118,121,116,118,128,128,116,114,126,116,116,120,125,117,122,116,120,120,123,121,106,115,119,134,125,126,133,114,122,124,120,98,114,119,125,129,103,114,117,125,122,125,122,118,123,123,124,114,126,121,119,120,118,123,116,123,121,121,115,116,116,123,118,130,121,120,126,118,132,118,127,122,122,127,127,123,114,145,121
119,122,119,116,117,127,114,120,150,120,121,126,121,120,118,117,107,120,119,116,118,102,122,119,110,122,125,116,113,126,115,119,129,118,115,117,119,127,128,123,125,126,117,119,126,112,120,120,120,123,130,120,115,136,123,117,149,116,116,112,114,101,119,120,123,121,122,122,123,125,124,123,131,125,126,130,123,125,131,120,109,114,119,109,121,116,129,122,120,125,116,119,122,122,115,113,127,117,123,104,115,125,119,122,122,128,122,146,119,124,126,118,105,120,121,122,138,116,120,126,133,121,127,132,111,111,115,119
111,124,116,121,126,120,116,116,121,131,123,116,121,113,127,125,136,104,120,124,121,122,101,123,116,123,123,136,127,124,142,119,116,125,127,114,121,120,112,119,134,117,108,128,125,126,118,128,121,125,122,117,120,114,118,117,122,118,121,121,121,121,124,115,117,123,121,120,124,139,118,120,140,120,118,123,121,116,114,117,114,122,123,131,121,115,132,125,116,114,120,121,119,115,107,130,137,123,123,110,128,122,116,127,123,119,115,129,125,116,121,119,119,123,125,111,120,137,126,118,119,121,129,138,125,142,121,121
111,120,115,109,118,121,119,121,120,123,123,135,115,106,117,118,114,117,119,118,132,116,121,120,106,129,123,123,120,136,112,117,117,113,124,121,122,128,134,124,118,124,116,118,115,124,123,121,128,120,122,139,148,111,111,110,121,121,122,114,116,112,128,122,107,121,118,114,121,111,119,118,120,120,122,127,125,107,114,115,122,122,120,111,115,122,129,121,111,118,123,151,127,110,118,117,111,123,116,113,118,117,121,117,124,119,116,113,119,118,114,123,104,126,127,123,125,117,121,123,130,121,121,119,120,117,116,119
99,123,113,119,124,123,132,116,128,115,120,117,110,109,111,116,115,121,123,123,138,141,133,122,120,122,128,127,115,114,121,118,119,120,115,118,118,118,119,119,124,121,123,121,124,130,125,133,120,124,123,123,123,122,122,125,122,121,123,126,121,121,121,119,120,123,123,122,123,126,121,117,119,121,138,131,132,110,119,121,122,122,97,111,121,122,122,122,120,121,123,127,123,121,121,121,122,121,119,117,119,119,121,127,120,121,124,124,121,118,120,114,121,122,121,121,119,120,123,122,119,121,121,122,116,122,121,123
120,122,118,123,118,119,119,119,121,122,139,131,128,118,124,112,124,122,95,104,130,120,121,115,121,121,114,124,120,118,121,128,121,122,128,122,117,130,123,135,117,121,130,126,117,119,120,117,117,120,116,121,114,122,121,118,125,121,121,116,126,117,121,115,120,121,130,125,122,120,118,112,123,120,107,110,119,122,121,118,119,120,120,122,116,115,124,118,122,123,123,122,112,123,122,130,122,123,121,122,131,122,121,131,124,121,127,124,123,120,120,132,117,120,114,115,120,123,120,112,121,120,122,124,120,121,120,113
120,121,121,123,127,122,121,136,120,120,121,122,126,122,124,122,118,122,121,122,116,119,121,119,121,122,120,118,126,121,120,120,121,119,120,123,122,124,118,120,110,121,120,121,127,111,120,109,127,123,123,124,154,127,122,131,122,122,121,123,120,116,124,123,116,122,121,122,120,121,120,108,118,121,125,124,120,121,121,119,126,121,118,118,123,119,120,123,123,121,126,123,121,119,122,118,120,122,118,117,108,122,124,129,123,121,119,124,96,112,121,138,135,121,126,124,118,123,124,133,111,123,119,125,117,122,122,113
132,121,111,120,117,120,120,119,124,120,123,119,119,120,120,125,114,122,122,121,123,119,120,119,124,122,122,124,135,119,122,130,111,120,121,121,124,120,120,110,126,121,120,122,115,119,121,128,119,120,121,121,122,122,122,132,118,121,121,122,124,125,121,112,112,122,122,123,117,117,121,107,123,120,121,122,125,121,120,121,118,119,120,122,123,120,121,116,120,122,125,122,111,121,122,137,129,123,117,120,108,121,123,129,116,121,122,121,121,120,119,125,121,120,120,122,119,121,119,112,118,121,121,122,122,121,120,123
119,122,121,122,123,121,121,112,126,121,120,121,121,121,123,134,120,121,121,122,121,121,122,113,120,122,122,122,120,120,120,114,119,122,121,122,121,120,121,129,119,123,122,121,121,121,123,117,129,122,120,121,122,120,121,122,117,121,121,122,120,121,121,123,120,122,122,122,122,121,121,116,121,121,121,122,122,121,121,127,122,121,120,121,121,121,122,119,120,120,121,122,120,120,120,118,122,123,122,122,118,121,122,132,121,122,122,122,121,122,122,122,122,121,121,122,121,121,119,117,117,121,121,121,121,121,120,119
120,122,121,122,122,120,122,120,122,122,121,122,122,122,122,122,120,122,121,122,122,122,123,124,121,121,120,121,122,122,122,121,119,121,120,121,121,121,121,118,120,122,121,122,121,120,121,119,121,122,121,122,120,120,121,120,121,121,120,121,122,121,121,120,120,122,121,122,121,121,120,117,121,121,120,122,121,122,122,124,121,122,121,122,122,122,122,120,118,121,121,122,121,121,119,117,122,122,120,121,121,121,122,115,121,122,122,122,121,121,121,116,124,121,121,122,121,121,121,117,118,120,121,122,121,121,121,119
119,120,121,121,121,121,121,119,120,121,121,122,122,122,122,123,122,122,121,122,126,121,121,124,121,122,121,122,121,122,122,119,121,121,121,122,121,120,121,122,120,122,121,122,121,121,121,120,114,120,121,122,121,121,121,115,123,121,121,121,120,121,121,122,120,120,120,121,121,121,121,121,121,122,121,122,121,121,122,120,120,121,121,121,120,120,120,119,120,120,121,122,121,121,120,118,122,122,121,121,121,122,127,132,120,122,122,123,122,121,121,121,121,123,120,121,121,121,121,115,114,119,120,121,121,121,121,122
123,122,121,122,121,121,121,122,121,123,121,121,121,121,121,119,123,121,121,121,121,121,122,131,119,121,121,122,121,122,123,118,119,120,121,122,121,121,121,121,120,122,122,122,121,120,121,118,117,122,121,122,122,121,121,119,124,117,120,121,121,120,121,120,115,122,121,122,121,121,122,121,120,123,121,122,121,121,122,122,121,122,121,121,122,121,122,121,121,122,121,121,120,121,121,123,120,121,120,121,121,121,122,117,124,122,122,122,121,121,122,122,119,121,120,121,121,121,122,122,120,121,121,122,122,121,121,119
122,122,120,121,121,122,124,120,121,122,122,122,121,121,121,121,123,123,121,122,122,121,121,122,120,121,120,121,120,121,120,120,121,122,120,120,117,121,122,119,122,122,121,122,128,120,122,121,120,121,120,121,120,121,122,123,120,121,120,120,120,121,121,120,120,121,121,121,121,121,122,120,120,121,121,123,124,121,121,120,121,121,120,121,121,121,122,121,120,122,121,122,121,120,121,123,119,122,121,121,120,121,120,117,120,122,121,122,121,121,120,121,121,122,121,122,122,121,121,122,122,122,121,122,122,121,121,119
119,122,121,121,120,121,120,120,124,121,120,121,121,122,124,124,117,120,121,122,121,121,123,119,121,120,120,121,121,121,121,122,120,123,122,122,120,121,121,122,122,121,121,122,122,121,120,125,117,121,121,122,121,121,122,112,119,122,121,122,121,121,120,121,119,121,122,123,122,121,121,118,122,121,121,122,121,121,121,122,120,122,121,122,121,121,121,121,122,121,121,121,121,121,121,122,119,122,122,122,121,121,122,118,120,122,121,121,121,121,121,120,120,121,121,122,126,121,122,120,120,120,121,122,121,121,120,120
120,121,121,122,121,120,120,119,121,121,122,122,121,120,120,119,120,122,121,122,120,121,121,122,123,122,121,121,121,121,121,120,118,121,121,121,120,121,121,120,123,121,121,122,121,121,121,118,118,120,121,121,121,121,121,121,120,121,121,122,121,121,120,120,121,121,121,122,122,121,120,119,121,122,122,123,121,120,121,122,121,122,121,123,122,121,121,121,121,121,121,122,121,121,121,118,119,121,121,122,121,121,120,121,121,121,120,121,121,121,120,120,120,122,121,122,122,122,122,122,118,120,121,122,121,120,121,120
121,122,121,122,121,120,120,121,121,122,122,122,120,120,122,121,120,121,121,122,122,121,121,120,122,122,121,121,121,121,121,121,120,122,121,122,122,120,121,121,120,121,120,121,121,121,121,122,125,120,120,121,120,121,121,117,116,121,121,122,121,122,120,119,125,121,120,121,121,121,122,120,120,122,121,121,121,121,121,121,118,120,121,121,121,121,122,120,122,121,121,122,121,121,122,122,119,120,120,121,121,121,122,120,121,121,121,122,121,121,122,120,121,122,121,122,120,121,121,120,120,122,121,122,121,121,121,120
120,121,121,121,120,121,121,120,119,121,121,122,121,122,122,121,122,122,120,121,121,120,121,120,121,122,121,121,120,121,124,125,121,122,121,122,121,121,123,120,120,122,121,121,120,121,121,119,119,121,121,122,122,121,121,118,121,121,120,121,121,121,121,121,123,121,121,122,121,121,121,119,121,122,121,121,121,121,121,121,121,123,121,121,121,121,121,121,121,121,120,121,121,121,122,119,121,121,120,121,121,121,122,120,121,122,121,121,121,121,121,121,121,122,122,122,120,120,121,121,124,121,120,121,121,121,122,121
120,121,120,121,121,121,122,123,122,121,122,122,121,121,121,121,121,121,120,122,121,121,120,120,120,121,120,121,121,121,121,120,119,122,121,121,120,120,121,120,123,122,121,121,121,121,121,120,124,121,121,121,122,121,121,120,119,121,121,121,121,121,122,122,121,121,121,122,121,121,122,120,120,121,121,122,121,121,121,120,121,122,120,121,120,121,122,122,121,121,121,122,120,121,121,120,121,122,120,121,121,121,122,120,121,122,122,121,120,120,120,121,122,121,121,122,122,122,122,122,122,122,121,122,121,121,121,119
119,122,122,122,121,120,120,121,119,121,121,123,122,120,121,119,121,121,121,122,121,121,121,121,122,122,121,122,122,121,121,121,119,122,121,122,121,121,122,117,121,122,121,121,121,121,122,121,120,121,121,122,121,121,121,120,121,122,121,122,121,121,122,122,121,121,120,121,121,121,122,120,121,122,121,122,121,121,121,119,121,121,121,122,121,121,121,121,119,121,121,121,120,120,121,120,121,121,121,122,121,120,121,121,120,122,121,122,121,121,121,120,121,122,121,122,122,121,121,119,120,121,121,122,121,121,121,120
120,121,121,122,122,121,122,119,122,121,121,122,121,121,122,120,120,121,121,122,121,120,120,120,122,121,121,122,121,122,122,121,120,122,121,122,122,122,122,120,121,122,121,121,121,121,121,122,118,121,121,122,122,121,121,118,121,121,121,122,121,122,120,118,122,123,121,121,121,121,121,121,118,121,121,121,121,121,122,121,120,121,121,122,121,122,121,121,122,121,121,122,120,120,120,120,120,121,121,122,121,122,121,119,120,121,121,122,122,121,121,121,119,121,120,121,121,121,121,120,121,121,121,122,121,120,121,121
121,121,120,121,120,121,121,121,121,122,121,122,122,121,123,121,121,121,121,122,121,121,122,121,120,121,121,122,121,121,121,119,119,120,121,122,121,121,121,120,121,122,121,121,121,121,121,120,121,121,121,122,122,121,123,120,119,121,121,122,121,122,121,119,120,121,120,122,121,121,121,120,121,122,120,121,121,121,121,121,120,121,121,122,121,121,122,119,120,122,121,121,120,121,121,121,121,121,120,121,121,122,122,120,121,122,121,122,121,121,121,121,120,122,122,122,120,121,121,121,119,122,121,122,121,121,121,120
124,121,122,122,121,121,122,121,121,122,121,121,121,121,121,121,120,122,121,122,120,121,121,119,121,121,121,122,122,121,123,121,120,121,120,121,121,121,122,120,121,121,120,122,121,122,122,121,119,121,120,122,121,121,122,120,121,121,120,121,121,121,121,121,120,121,121,122,121,122,121,119,119,121,121,122,122,121,122,121,121,120,121,122,121,121,121,119,122,121,120,122,121,121,121,121,121,121,122,122,122,122,122,120,119,120,121,121,121,121,122,120,120,121,120,121,121,121,122,122,120,121,121,122,121,122,123,120
120,121,121,122,121,121,121,120,120,122,122,123,121,121,122,121,121,122,121,122,121,121,122,121,120,120,120,122,121,121,122,121,119,121,120,121,121,121,121,120,122,121,121,122,121,121,121,121,120,121,120,122,121,122,123,122,121,121,121,122,121,120,121,120,120,122,121,121,121,121,121,121,121,122,121,122,121,121,122,120,121,123,122,122,120,120,121,121,120,121,121,121,120,121,121,120,120,121,121,122,122,121,121,120,122,122,122,121,120,121,121,120,119,122,121,122,121,121,121,121,124,120,120,122,121,122,121,120
116,122,122,122,122,121,120,119,123,122,122,122,120,121,121,120,119,121,121,122,122,121,121,119,120,121,121,122,122,122,120,118,122,121,121,121,120,121,121,121,121,121,120,121,121,121,121,118,117,121,122,122,121,121,120,119,124,122,121,122,122,121,122,121,117,120,121,122,122,121,120,119,124,122,121,122,122,120,120,120,121,122,121,121,120,121,121,120,120,122,121,122,121,121,120,120,121,120,121,122,121,121,120,119,120,122,121,121,120,120,122,119,121,121,121,122,121,121,121,119,118,120,121,122,121,121,122,120
125,122,121,121,120,121,121,120,122,121,122,122,121,120,121,120,118,122,121,122,122,121,120,119,122,123,121,121,121,121,121,121,119,121,121,121,121,121,121,121,120,122,121,121,120,120,121,120,121,122,120,121,120,121,123,121,122,121,121,122,121,121,122,121,117,122,121,122,121,122,122,121,122,122,122,122,121,120,121,121,120,121,120,121,121,121,121,121,119,121,121,122,121,121,120,119,121,121,121,122,122,121,121,120,119,121,121,121,120,121,121,120,119,121,120,122,121,121,121,120,121,121,122,122,120,121,121,121
120,121,121,122,121,122,121,118,121,122,121,121,121,121,122,121,121,121,120,122,121,121,122,122,121,122,121,121,120,121,121,120,120,122,121,122,121,121,122,120,120,122,122,122,122,121,121,119,120,121,121,121,121,120,120,120,121,121,121,121,121,121,122,120,118,120,121,122,121,121,121,117,120,122,121,121,121,121,120,120,121,123,121,121,122,122,123,120,120,121,120,122,121,121,121,120,120,121,121,122,120,121,121,121,123,122,121,121,121,121,122,123,120,121,120,121,121,121,121,120,119,121,120,122,122,122,121,120
117,121,121,122,121,121,122,118,120,121,120,121,121,121,122,120,122,122,120,121,121,121,121,120,119,120,121,122,121,121,121,120,120,121,121,121,121,121,123,121,122,122,121,122,121,120,121,120,119,120,121,122,121,121,120,119,121,122,122,122,122,121,121,121,120,121,120,121,121,121,121,120,120,122,121,121,120,121,121,120,121,122,121,121,121,121,122,121,120,121,120,122,121,121,121,120,121,122,121,121,120,121,121,121,120,121,120,122,121,121,122,121,121,122,121,122,121,121,121,120,119,120,120,122,121,121,122,120
122,122,121,122,121,121,121,120,120,122,122,122,121,121,122,122,120,122,121,122,121,121,120,119,119,121,121,122,122,121,121,120,121,121,120,121,121,121,121,120,121,123,122,121,120,121,121,120,119,120,121,122,121,121,121,121,122,120,120,121,121,121,121,120,119,121,120,121,122,122,121,120,120,121,121,122,121,121,121,120,119,121,121,122,121,121,121,120,120,121,120,121,121,121,121,121,119,122,121,122,121,121,122,120,122,121,121,122,121,121,122,121,119,120,121,122,121,121,122,120,120,122,121,122,120,120,121,121
120,121,121,122,121,121,120,119,121,121,122,125,122,122,126,121,119,121,121,122,121,122,120,120,119,122,122,122,121,120,121,120,123,121,122,122,121,120,120,119,122,121,120,122,121,122,121,119,120,122,121,122,122,121,122,120,120,121,121,122,122,121,120,119,120,121,121,122,121,121,121,120,122,122,121,122,121,121,121,120,120,121,121,122,120,120,121,120,121,121,121,122,122,121,121,120,120,121,121,123,122,121,120,120,120,121,121,122,121,122,122,120,121,121,121,122,121,121,123,121,121,122,122,122,121,121,121,121
120,121,121,122,121,121,120,118,121,122,121,122,121,121,122,120,120,122,121,122,121,120,120,120,121,121,121,122,122,121,121,119,118,121,121,122,122,122,121,119,124,121,121,121,121,121,122,121,119,121,121,122,122,121,120,119,119,121,121,121,121,120,121,121,121,120,121,122,121,121,121,122,118,122,121,122,121,121,121,120,120,122,121,122,122,120,120,120,118,121,121,122,121,121,121,118,121,123,121,121,121,121,121,121,119,121,121,122,120,121,121,120,120,121,121,122,121,121,120,121,120,121,122,122,121,120,121,120
120,122,121,123,122,121,121,120,120,121,121,122,121,121,122,121,120,121,121,121,121,121,122,120,121,120,121,122,121,122,123,119,120,121,121,122,122,121,120,120,121,122,121,121,121,121,121,120,120,121,121,122,121,121,121,121,119,120,120,121,121,121,121,121,124,122,120,121,120,121,121,120,120,122,121,121,121,121,122,121,120,121,121,122,121,121,122,120,120,122,121,121,121,121,122,122,119,121,120,121,121,120,120,120,122,121,121,122,122,121,121,122,119,121,120,121,121,121,123,121,121,122,122,122,120,121,121,118
121,121,121,121,121,121,121,121,120,121,120,121,121,121,121,120,121,121,121,122,122,121,121,121,121,122,121,122,121,121,121,120,120,121,121,122,122,121,121,120,119,121,121,122,121,121,122,120,120,120,120,122,121,121,121,120,122,121,121,121,121,121,122,122,122,122,121,121,121,121,122,120,119,121,121,122,121,121,121,121,121,121,120,121,121,121,121,120,119,121,121,122,121,120,121,120,124,120,121,122,121,121,122,120,117,120,121,122,121,121,120,120,123,122,121,121,121,121,121,120,121,122,121,122,122,121,122,121
121,122,120,121,121,121,121,121,120,121,121,122,121,121,121,121,120,122,121,122,121,122,122,121,120,121,121,122,121,121,121,120,120,122,121,121,121,121,121,119,121,122,121,121,121,121,122,119,120,122,121,122,121,122,122,120,121,121,120,122,121,121,122,122,120,122,121,122,121,121,121,121,119,121,121,122,122,121,121,119,121,122,121,122,121,120,120,121,119,120,120,122,121,121,121,120,121,121,120,122,121,121,122,121,120,121,121,122,122,121,120,121,121,121,121,122,122,120,119,119,121,121,121,122,121,120,120,121
120,121,121,122,120,120,121,119,120,121,121,122,122,121,121,119,119,122,122,122,121,120,121,121,119,120,121,122,122,121,121,121,120,121,121,122,121,121,121,121,121,123,121,122,122,121,122,120,121,121,121,121,121,121,122,120,120,121,121,122,121,122,121,120,121,122,121,121,121,121,121,120,121,121,121,122,122,122,122,122,121,122,121,122,120,121,121,120,120,122,121,122,121,122,123,119,120,122,121,121,120,121,121,120,121,122,121,122,121,120,121,119,122,121,121,122,122,121,122,121,122,122,121,122,122,121,120,119
120,121,121,121,121,120,121,120,120,122,121,122,122,121,121,119,120,122,121,122,121,121,121,120,121,121,120,122,121,121,121,121,121,123,121,122,121,122,123,121,121,121,121,122,121,121,121,121,120,121,121,122,121,120,121,120,121,121,121,122,122,122,122,121,120,121,121,122,121,121,120,119,121,122,121,121,121,121,122,121,119,121,121,122,121,121,121,120,120,122,121,122,121,122,122,119,123,121,121,122,122,122,121,119,121,121,121,122,121,120,122,126,120,121,121,122,121,122,122,119,120,122,121,122,120,120,122,118
121,120,121,122,121,121,121,119,121,122,121,121,121,121,121,121,121,122,120,121,121,121,123,122,121,121,120,122,121,121,121,120,120,122,121,122,122,121,120,119,121,122,121,121,121,121,122,121,120,120,121,121,121,121,121,120,121,121,121,122,121,121,121,120,120,121,121,122,122,121,123,121,121,121,121,122,121,121,121,120,120,121,121,122,121,121,120,120,121,121,120,121,121,121,121,120,122,122,120,121,121,121,122,121,120,122,122,122,121,120,121,120,121,122,120,121,121,121,122,121,122,122,120,121,121,121,121,120
119,121,121,122,121,122,121,120,121,122,121,122,120,121,121,120,121,121,120,122,121,121,122,121,120,121,121,122,121,121,122,121,121,121,121,122,121,121,120,119,122,122,121,122,121,121,121,122,120,121,120,122,121,121,122,119,120,122,121,122,120,121,121,120,119,121,121,122,121,121,120,119,121,122,121,121,121,121,121,120,121,121,121,122,122,121,122,120,120,121,121,122,121,121,121,118,121,121,120,121,121,121,122,122,121,121,121,122,121,121,121,119,117,121,120,121,121,121,121,122,123,120,120,121,121,121,122,121
121,121,120,121,121,121,121,119,121,122,122,122,120,121,122,121,120,121,121,122,121,121,120,120,120,121,121,122,122,121,121,119,121,122,121,121,121,120,121,122,121,122,121,121,121,121,123,121,121,121,120,121,121,121,121,120,121,122,121,122,122,121,121,123,121,120,121,122,121,121,120,117,120,121,121,122,122,122,122,120,120,122,121,122,121,120,121,120,121,122,121,123,122,121,121,121,120,122,121,121,121,121,121,121,121,121,121,122,121,120,121,119,115,121,121,122,121,121,121,121,122,122,122,122,121,120,121,121
119,121,121,122,121,121,120,119,122,122,121,122,121,120,121,121,119,121,121,122,122,121,121,119,121,121,120,121,121,121,122,121,120,121,122,122,121,122,121,121,120,122,121,122,121,121,121,121,122,120,120,121,121,122,125,122,119,120,121,122,122,121,121,118,119,121,121,122,122,121,120,120,121,122,121,121,120,120,121,121,120,122,121,122,122,121,121,120,120,121,121,122,122,121,120,119,120,121,121,122,121,122,121,120,120,122,121,122,121,120,121,120,120,121,121,122,122,121,121,120,120,121,121,122,121,121,121,120
121,122,121,121,120,121,121,121,121,122,121,122,122,122,121,120,121,122,121,122,122,120,120,120,119,121,121,122,120,120,121,120,121,120,120,122,121,122,121,121,120,122,121,121,121,121,123,120,121,121,121,122,122,121,122,122,119,121,121,122,122,121,120,119,123,122,121,121,120,120,121,120,120,122,122,122,121,121,121,121,120,121,121,122,121,122,121,123,121,122,121,121,120,121,121,120,120,121,121,122,121,121,121,119,120,121,121,122,121,121,122,120,121,121,121,121,120,120,121,121,120,121,121,122,121,121,120,120
121,121,121,122,121,121,122,120,120,121,121,122,122,121,122,120,119,121,121,121,121,121,122,121,121,121,120,122,121,121,122,122,121,121,121,122,121,120,122,120,121,121,120,122,121,121,122,121,122,122,122,122,121,121,121,121,122,123,121,122,121,121,121,121,118,120,121,122,121,122,122,120,120,121,121,121,121,121,122,120,120,121,120,121,121,121,122,120,121,121,120,122,121,121,121,121,122,121,121,122,121,122,121,118,120,122,121,121,120,121,121,120,120,121,121,122,122,121,121,120,120,121,121,121,120,121,121,120
121,122,121,122,121,121,122,122,122,122,120,122,121,122,122,119,120,122,121,121,120,121,120,119,122,121,121,121,120,121,122,121,121,122,121,122,121,121,121,120,121,122,121,121,120,121,121,119,117,120,120,121,121,121,121,123,125,121,120,121,121,121,121,121,119,122,121,121,121,121,121,119,121,121,121,122,121,121,123,122,121,122,120,122,121,121,121,121,121,121,120,121,121,121,121,121,124,121,121,121,121,120,121,121,120,122,122,122,122,121,121,123,121,121,120,121,121,121,121,120,120,121,121,121,120,120,121,120
120,121,121,122,122,121,120,120,121,122,121,122,122,121,121,120,120,122,121,122,121,121,122,121,122,122,121,121,121,121,121,121,120,121,121,121,121,121,123,121,120,122,121,121,120,121,121,120,120,122,121,123,121,121,121,121,122,121,121,122,122,122,122,120,123,121,121,121,121,121,122,122,120,122,121,122,121,120,121,120,120,121,120,121,120,120,121,120,121,122,121,122,121,121,122,120,121,122,120,121,121,121,121,121,121,121,121,122,121,122,122,121,120,122,121,122,121,121,121,119,120,120,120,121,121,121,121,121
119,122,122,122,121,120,121,123,121,120,121,122,121,120,121,120,119,121,121,122,121,121,121,119,120,121,121,122,121,121,122,119,121,122,120,122,121,121,120,120,120,122,121,122,121,120,120,120,120,122,121,121,121,121,122,121,121,122,121,122,122,121,122,120,121,121,121,122,121,121,121,120,120,121,121,122,121,121,121,120,120,121,121,122,122,122,122,120,119,121,121,122,121,121,121,119,121,122,122,122,121,121,121,120,120,121,121,122,121,122,121,120,120,121,121,122,121,122,122,120,120,121,121,121,120,121,121,120
121,122,121,122,121,121,121,120,120,122,121,122,120,120,121,120,118,121,121,122,121,121,121,120,120,121,121,122,121,121,122,120,121,122,121,122,121,121,120,120,120,121,120,121,121,121,121,119,121,122,121,122,121,121,122,120,119,121,121,122,122,121,121,119,120,120,120,121,121,121,122,120,120,121,121,122,121,121,123,123,121,122,121,122,121,121,121,120,121,121,121,122,121,122,122,121,120,121,120,121,121,121,121,121,120,121,120,121,121,121,121,119,120,122,121,122,121,121,122,121,120,121,120,122,121,121,120,118
120,121,121,122,121,121,120,120,120,122,121,122,122,121,122,120,123,122,121,122,122,121,121,122,119,122,121,121,120,121,122,121,120,121,122,121,121,121,121,121,120,122,120,121,121,121,121,120,121,121,120,121,121,121,122,121,120,121,121,122,121,121,120,117,120,121,121,122,121,122,122,120,120,122,121,122,120,121,121,120,121,122,121,122,121,120,120,119,120,121,121,122,122,121,122,119,120,122,121,122,121,120,120,120,121,121,120,121,121,121,122,121,121,121,121,122,121,121,121,120,121,122,121,122,121,122,122,120
119,120,121,122,121,122,121,119,121,121,120,121,121,121,122,122,119,121,121,122,121,121,121,120,123,121,121,122,122,122,122,121,121,121,120,121,121,121,122,122,120,121,121,121,121,121,122,120,121,121,120,122,121,121,121,120,119,121,121,122,121,121,123,120,120,120,120,122,121,121,122,121,121,122,121,122,120,120,121,120,120,122,121,121,121,121,121,120,122,122,121,121,121,121,120,120,121,122,121,122,121,122,121,121,120,121,120,122,121,121,121,119,121,122,120,121,120,121,122,122,119,121,120,121,120,121,121,121
122,121,120,121,121,121,121,121,120,122,122,122,121,120,121,120,119,121,120,121,121,121,122,119,120,121,121,121,120,121,121,120,120,121,120,121,121,121,121,120,121,122,121,121,121,121,121,121,120,122,120,122,121,121,122,121,123,121,121,122,121,120,121,120,119,121,121,122,121,121,121,120,120,122,122,122,121,120,121,120,121,122,121,122,120,120,121,120,120,121,121,122,121,121,122,120,119,120,121,122,121,121,122,121,121,122,122,122,121,121,121,121,121,122,122,122,122,122,122,120,124,121,121,122,121,121,121,120
119,121,121,122,121,122,121,119,120,123,121,121,121,121,121,119,120,121,121,122,122,120,120,120,120,121,121,122,121,121,120,119,121,122,121,122,122,120,121,120,120,121,121,122,121,121,121,120,123,122,120,122,121,121,123,121,119,121,121,122,121,122,121,118,121,122,122,122,121,120,121,121,119,121,121,122,122,121,121,119,120,121,121,122,121,121,121,119,117,121,120,121,121,121,121,120,123,121,121,121,121,121,122,121,122,122,121,122,121,121,121,119,120,121,121,122,122,122,121,120,118,121,121,122,121,121,122,122
119,122,121,122,121,121,120,118,122,121,120,121,121,121,123,123,123,121,121,122,121,121,121,121,119,121,121,122,121,121,121,119,121,120,120,122,121,121,121,121,120,122,122,122,121,120,121,119,120,121,121,122,121,120,120,121,121,121,121,121,120,121,121,122,121,121,122,122,122,122,121,119,121,122,121,121,120,121,122,123,121,121,121,122,121,121,121,120,119,121,121,122,122,121,121,120,116,122,121,122,121,121,121,121,129,121,121,122,121,121,121,121,119,122,122,122,120,120,121,120,119,121,120,122,121,121,121,119
120,121,121,122,121,122,122,120,119,121,120,121,121,121,121,122,121,122,120,121,121,121,121,120,121,120,120,122,121,121,121,121,120,121,121,122,122,121,122,119,121,122,122,122,122,121,122,121,121,122,120,121,121,121,121,120,121,122,121,121,120,121,122,120,121,121,122,122,121,120,121,121,119,122,121,122,122,121,121,119,121,122,121,121,121,121,122,121,121,122,121,122,121,121,121,120,120,122,121,122,120,121,121,121,121,122,121,122,121,121,121,121,123,122,121,122,122,120,121,121,116,120,121,122,121,121,120,119
122,121,121,122,122,122,121,120,119,121,120,121,121,121,121,120,121,121,121,122,121,121,121,122,120,122,121,121,120,120,121,120,121,121,120,121,121,121,121,121,120,122,121,122,121,120,121,120,126,121,121,122,121,120,121,121,119,121,121,122,121,121,122,121,121,121,120,122,121,121,121,119,120,121,121,122,121,121,121,121,121,122,122,122,120,121,121,121,120,122,122,122,121,121,121,120,121,122,120,121,121,121,121,120,120,121,120,122,122,121,121,121,120,122,121,121,120,121,121,122,122,121,121,122,121,121,120,120
120,121,121,122,122,121,121,120,120,122,121,121,121,122,122,122,122,122,121,121,121,121,122,121,119,121,121,122,120,120,120,120,122,122,120,122,121,121,122,120,120,120,121,122,121,122,121,120,121,121,120,121,121,121,122,121,120,121,120,122,121,121,121,120,122,121,121,122,122,121,120,120,121,121,121,122,120,120,121,120,120,122,121,122,122,121,121,119,119,120,121,122,121,121,121,121,121,121,120,121,121,121,122,121,120,121,121,122,121,121,122,121,120,121,121,122,121,122,121,119,120,121,121,122,122,121,121,119
118,121,121,122,121,120,122,122,126,121,121,122,121,121,121,121,119,122,121,122,121,121,121,120,119,121,121,122,121,121,121,119,120,121,121,122,121,120,122,121,121,122,121,122,121,122,124,121,121,122,121,121,120,120,121,120,120,121,121,122,121,121,121,121,120,122,121,122,121,120,121,121,119,121,121,122,121,121,122,120,121,122,121,122,122,122,121,120,120,120,120,121,121,121,121,120,121,121,122,122,121,120,121,121,121,121,122,122,121,121,121,120,120,122,121,122,122,121,121,120,120,122,121,122,122,121,120,119
120,120,121,122,121,121,120,120,120,122,121,122,121,121,120,119,121,121,121,122,122,122,122,120,119,120,120,122,121,121,121,122,121,122,121,122,121,120,121,119,120,122,121,122,122,121,121,119,119,121,121,122,121,121,120,119,125,121,121,122,121,121,121,121,119,121,121,122,121,121,120,118,119,121,121,121,121,120,121,121,121,122,122,122,121,120,121,120,121,122,122,122,121,121,121,119,120,121,121,122,121,121,121,121,120,122,121,122,121,120,121,120,120,121,121,122,121,120,121,120,122,122,121,121,121,121,122,121
119,120,120,122,121,121,121,120,122,121,120,121,121,122,122,120,119,121,121,121,121,121,123,121,120,121,121,122,121,121,121,120,122,123,121,122,121,122,121,120,119,121,121,122,121,121,120,121,120,121,121,122,121,121,122,120,119,121,120,121,121,121,121,121,122,122,121,122,122,121,121,121,117,120,120,122,121,121,121,120,120,121,121,122,121,121,122,121,120,121,121,122,121,121,121,120,121,122,121,121,121,121,122,123,120,122,121,121,121,121,121,122,120,122,121,121,120,121,120,120,121,121,120,121,121,121,121,121
120,121,121,122,121,121,121,120,121,122,121,122,121,122,122,121,120,121,121,122,121,121,121,120,121,121,121,122,120,121,121,121,122,122,120,121,121,121,121,120,119,121,120,121,121,121,122,121,121,122,121,121,121,121,121,120,121,121,121,122,121,122,123,120,119,120,120,122,121,121,121,120,121,121,120,121,121,121,121,121,124,122,121,121,121,120,121,121,119,121,120,121,121,121,122,120,119,121,121,122,121,122,121,119,120,121,121,122,122,121,122,121,121,121,121,122,121,122,122,119,119,121,121,121,121,120,121,120
124,122,121,121,120,121,121,120,120,120,121,122,121,122,121,121,121,123,121,122,121,121,122,121,121,120,120,121,121,122,124,121,121,122,121,122,120,121,121,120,121,122,122,122,121,121,121,120,119,120,121,121,121,121,122,120,118,120,120,122,121,121,121,120,121,122,120,121,121,121,122,120,118,120,121,122,121,121,121,120,123,121,121,122,121,121,119,118,119,120,120,121,121,121,122,122,121,122,121,122,121,121,120,119,120,121,120,122,121,121,121,121,119,121,121,121,121,121,121,119,121,121,121,122,122,122,122,120
120,122,121,122,122,121,122,121,120,121,121,122,121,121,121,120,120,122,120,121,121,121,121,120,123,122,121,122,121,121,123,121,120,122,121,122,121,120,120,122,120,121,121,122,122,121,121,120,120,122,121,122,120,121,121,121,123,121,121,123,121,120,120,120,121,122,122,122,120,121,122,122,116,120,120,122,121,121,122,121,121,122,121,122,121,120,120,120,120,123,121,121,121,121,122,121,119,121,121,122,121,120,121,119,120,122,121,122,121,121,121,120,120,121,121,122,121,120,121,120,121,121,121,122,121,122,122,119
119,121,122,122,121,121,121,119,123,122,121,122,121,121,120,122,119,121,121,122,121,121,122,121,122,121,121,122,121,121,120,119,120,121,121,122,121,121,121,121,120,122,121,122,122,121,121,122,120,122,121,122,121,121,120,120,120,122,122,122,120,120,120,120,120,121,120,121,121,121,122,120,120,122,121,121,120,121,121,120,121,122,121,121,120,121,121,120,121,121,121,122,121,121,121,120,122,121,121,122,121,121,121,120,118,121,121,122,122,120,120,121,121,121,121,122,120,120,121,120,120,121,121,122,121,120,121,120
119,121,120,121,120,121,121,120,127,121,121,123,122,121,122,120,119,121,121,122,121,120,121,120,122,121,120,121,121,121,121,120,120,121,121,122,121,121,122,120,119,121,120,122,121,121,121,119,120,121,121,122,121,122,123,120,121,121,120,121,121,121,121,121,121,121,121,122,121,121,122,119,120,121,121,121,121,121,122,121,121,122,121,122,122,121,122,121,118,120,120,122,121,121,120,119,120,121,121,122,121,121,122,120,120,123,122,122,120,121,121,120,126,122,122,122,122,121,122,121,119,121,120,121,121,120,121,121
122,121,121,122,122,121,121,120,120,122,121,121,120,120,121,120,121,121,120,121,121,121,121,121,120,121,121,122,121,121,121,119,120,121,120,122,121,121,121,120,121,122,121,121,121,121,121,121,121,121,122,122,121,120,121,121,119,120,120,122,122,121,122,119,120,121,121,122,121,122,121,120,121,121,121,122,121,121,120,120,118,120,120,121,121,121,122,120,121,122,122,122,121,121,121,121,118,121,121,122,121,121,121,120,121,121,120,121,121,121,122,121,124,121,120,121,121,121,122,121,119,121,122,122,122,122,121,120
120,122,121,122,122,121,121,119,121,122,120,122,121,121,123,121,120,120,121,122,121,122,122,120,120,122,121,122,121,121,120,120,121,122,120,121,121,121,122,120,120,120,121,122,121,121,122,120,121,121,120,121,121,121,121,121,121,121,120,121,121,121,121,120,120,121,121,122,122,121,121,121,119,121,121,122,122,121,122,120,120,121,120,121,121,121,121,120,120,121,121,122,121,121,121,120,122,122,122,123,122,121,121,121,120,122,122,122,121,121,120,120,119,120,121,122,121,121,121,119,120,121,121,122,122,121,122,120
120,122,121,122,122,121,121,120,122,121,121,122,122,121,120,122,120,123,121,122,120,121,121,120,119,121,121,121,121,121,121,120,121,122,121,122,121,122,122,120,120,121,120,121,121,122,122,121,120,121,121,122,121,121,121,120,118,120,120,122,121,121,122,120,120,121,121,122,121,121,121,120,121,122,120,121,120,120,121,120,121,121,121,122,121,121,120,119,120,121,121,122,121,121,121,121,123,121,120,121,121,121,121,121,120,121,121,122,121,121,122,120,118,120,121,122,121,121,120,119,125,121,121,122,122,121,120,119
120,121,121,122,122,121,121,120,121,122,122,122,121,121,123,120,119,122,121,121,121,121,122,121,122,121,121,122,121,120,121,120,118,120,121,122,121,121,122,121,121,122,121,121,121,121,121,121,121,122,122,122,121,121,122,121,120,121,121,122,121,122,121,120,119,122,121,122,121,121,120,120,123,121,121,122,122,121,121,120,120,121,121,122,122,121,121,120,119,121,121,122,120,120,121,121,119,121,121,122,121,121,121,119,123,121,121,122,122,121,121,120,118,122,121,121,120,121,121,119,122,121,121,121,120,121,121,120
120,122,121,122,121,120,121,120,119,121,120,121,121,121,121,121,121,121,121,121,121,121,121,121,119,120,121,122,121,121,122,121,122,121,121,122,122,121,121,120,119,122,121,122,121,120,121,121,121,121,120,122,121,121,122,120,121,122,121,122,121,121,122,120,119,121,120,121,121,121,120,120,122,121,120,122,121,121,121,120,121,122,121,122,122,121,120,120,120,122,121,121,121,121,121,120,121,121,121,122,121,121,121,120,123,120,120,121,121,121,122,121,118,121,121,122,121,121,121,120,121,122,121,121,120,121,121,120
121,122,121,121,120,121,121,120,120,121,121,122,122,121,121,120,121,121,120,121,120,121,121,120,121,122,121,121,120,121,122,121,120,122,121,122,121,120,121,121,121,121,121,123,121,121,121,120,118,120,121,122,121,121,122,120,121,122,121,121,120,121,122,122,121,122,121,122,122,122,121,120,120,121,120,122,122,121,120,119,121,121,121,122,120,120,121,121,122,121,120,121,121,121,121,121,120,122,121,122,121,121,122,121,120,122,121,121,121,121,121,119,124,121,120,121,120,120,120,119,119,122,121,121,121,121,122,123
124,121,121,122,121,122,123,119,119,121,120,121,121,120,120,114,119,120,120,122,121,121,121,123,121,121,120,121,121,121,122,124,121,121,121,121,121,121,121,127,120,121,121,121,120,121,123,124,120,122,121,121,121,121,123,122,117,120,120,121,121,121,120,117,124,121,120,121,116,120,120,122,124,122,121,122,122,121,122,122,120,121,121,122,122,121,119,122,120,122,121,122,121,121,120,119,118,121,121,122,122,121,120,100,121,122,121,121,123,120,126,138,121,123,121,121,117,124,122,114,124,122,122,125,125,121,125,125
120,121,121,120,124,124,118,107,117,120,121,121,132,120,122,127,123,122,120,123,119,121,118,98,120,121,121,119,124,120,123,132,121,122,122,121,120,119,121,128,117,122,123,122,125,127,122,127,130,121,121,122,122,119,119,129,104,120,116,120,143,123,121,137,112,121,121,122,126,118,114,70,120,122,119,119,119,118,123,151,120,120,126,118,102,117,119,121,141,122,119,121,126,122,122,118,120,123,126,122,109,120,133,149,109,121,117,122,119,130,117,97,118,123,127,125,113,112,121,117,129,121,117,118,110,116,117,97
133,125,123,122,122,126,134,182,117,121,122,123,132,117,120,98,119,120,120,122,119,119,123,131,108,121,119,119,119,118,119,137,131,125,124,123,121,125,128,133,123,121,121,123,108,118,131,144,115,123,120,120,120,120,121,115,118,119,121,123,124,119,116,120,124,123,121,122,115,118,121,122,108,119,117,119,127,112,119,126,126,124,127,125,127,124,130,136,113,120,114,126,122,126,113,104,114,119,124,116,120,118,111,139,112,121,125,122,112,127,124,112,118,120,111,117,124,118,117,115,119,120,122,117,111,122,120,148
126,123,124,124,134,124,130,114,112,121,122,120,123,116,107,78,135,120,121,121,123,122,121,164,115,121,121,123,125,110,109,110,113,121,122,118,113,119,117,103,112,121,116,118,116,119,124,155,122,121,123,124,124,123,125,102,115,121,119,119,123,123,122,130,120,123,121,124,129,119,124,110,123,123,120,126,133,113,124,107,120,123,125,124,107,127,125,137,137,123,128,121,120,120,121,130,120,120,109,118,117,117,121,128,114,119,124,122,116,121,117,103,130,119,105,107,109,120,116,131,116,121,126,124,124,132,117,151
123,123,123,115,122,122,119,91,115,121,120,122,120,122,114,121,112,121,124,122,110,118,117,132,115,120,118,121,106,119,117,117,109,120,121,117,107,109,111,99,143,123,121,123,117,121,130,170,113,121,122,122,120,120,120,114,122,118,119,120,121,120,118,93,115,122,122,121,116,117,119,95,128,122,117,119,122,124,137,112,117,121,123,123,122,122,113,132,119,120,119,122,127,130,120,95,117,122,121,121,121,121,124,120,127,123,122,121,117,120,123,140,126,122,122,124,130,125,125,129,122,121,121,121,126,124,130,117
122,120,118,119,122,121,125,85,126,120,120,121,123,123,123,122,112,120,123,122,121,119,111,106,117,121,120,124,144,134,118,124,136,124,123,125,152,123,125,152,116,123,134,127,130,122,110,79,116,120,116,118,118,115,123,137,129,122,116,118,122,123,132,147,113,121,123,122,115,119,111,86,120,120,123,123,125,125,122,120,120,121,121,120,116,115,131,136,118,121,119,121,123,118,121,97,110,121,121,120,117,119,115,138,138,126,126,128,136,126,129,113,101,119,119,120,121,117,115,61,122,123,122,123,129,129,129,142
132,122,121,122,119,122,117,113,108,119,120,121,121,116,115,119,125,124,123,124,123,124,130,146,108,119,119,121,119,116,104,50,136,122,122,124,128,132,148,237,108,122,123,122,127,122,111,100,114,118,113,118,118,116,117,86,120,121,124,125,145,120,124,163,114,121,120,127,107,124,117,94,126,122,120,121,128,125,127,122,104,120,118,119,108,118,114,99,115,121,121,120,120,120,115,87,141,121,120,121,117,124,137,176,116,123,121,123,120,121,110,98,131,121,126,121,120,120,121,150,117,120,117,121,135,120,115,117
119,120,122,120,119,120,129,131,120,123,123,123,127,125,130,144,132,121,121,121,114,119,116,105,107,121,121,122,118,128,123,109,119,122,121,122,118,121,118,135,131,121,121,122,123,123,144,150,114,121,121,121,113,119,106,107,119,121,120,120,122,120,124,110,123,120,120,121,119,120,133,147,136,128,123,130,138,119,113,68,122,121,119,120,121,123,127,185,121,122,124,123,128,128,112,97,119,121,122,123,119,121,124,108,125,121,123,123,122,121,115,108,118,122,116,119,111,124,144,142,117,119,119,125,119,120,118,96
116,120,122,122,122,119,114,111,114,120,121,120,112,121,121,122,128,122,121,123,135,126,123,117,114,121,121,122,122,121,123,104,119,120,119,120,120,120,119,121,120,121,121,123,122,123,118,116,113,119,121,122,124,124,129,104,117,120,119,121,119,113,107,102,125,121,120,121,132,121,126,129,115,120,121,122,128,120,117,96,125,123,123,123,132,121,125,152,122,122,121,123,120,129,133,134,118,120,120,122,122,128,121,107,118,120,119,120,108,117,115,83,121,123,123,124,121,126,147,172,145,124,122,122,133,122,117,100
115,120,120,120,126,115,121,141,119,121,120,120,118,118,120,135,117,120,122,123,122,124,126,131,122,122,121,121,121,120,123,95,117,120,121,121,121,117,113,109,122,120,120,122,115,122,131,140,128,119,119,121,121,118,121,121,113,122,121,122,121,120,123,142,114,120,121,121,119,118,116,93,131,122,121,121,125,120,121,135,114,122,121,123,130,122,119,127,128,124,122,123,123,126,145,177,122,121,121,122,119,123,123,108,118,119,119,120,117,118,126,136,108,118,120,121,122,117,109,101,122,125,121,121,109,117,125,151
126,125,122,121,119,125,126,91,124,121,121,123,132,129,121,154,119,120,119,120,122,118,114,104,130,121,122,123,124,120,115,99,118,119,120,121,111,120,109,119,115,122,120,121,121,120,118,116,134,123,124,121,120,124,111,114,119,121,119,120,116,118,123,127,111,120,120,120,120,119,115,108,122,122,122,122,117,121,120,101,119,121,121,122,112,122,126,140,108,123,121,122,120,121,123,111,132,124,122,122,125,122,125,137,123,121,121,120,116,120,120,139,113,121,121,122,116,122,132,83,115,119,119,121,123,125,110,85
128,123,123,122,119,125,135,121,122,122,121,122,117,119,112,88,110,123,121,122,119,121,112,136,125,118,120,122,123,128,125,116,115,121,121,121,118,124,126,125,128,123,122,123,124,129,119,133,111,121,121,122,120,117,119,104,120,122,122,123,127,127,128,149,133,122,120,120,138,122,116,105,123,119,121,123,110,121,132,175,115,122,119,119,128,121,113,88,115,121,123,127,139,121,122,122,124,124,116,124,124,121,129,96,120,122,126,124,125,117,113,136,116,123,121,121,119,118,125,109,137,121,125,121,120,120,130,139
120,121,117,124,120,116,117,104,111,122,124,123,120,122,118,128,116,123,126,119,122,121,126,109,116,120,119,119,120,120,121,104,124,120,118,125,119,120,115,127,112,121,125,121,121,118,130,117,124,122,118,122,122,119,120,133,114,120,120,121,122,117,119,132,114,124,123,122,121,120,120,97,111,119,120,121,120,119,118,147,118,122,118,121,122,123,124,113,119,120,121,124,138,119,112,109,117,120,120,121,119,122,125,139,122,123,123,121,124,125,131,124,141,122,125,122,121,120,113,155,127,122,116,121,126,132,138,132
118,122,123,122,125,120,132,141,115,120,117,119,114,123,118,103,121,121,121,121,118,116,115,125,117,121,124,118,119,121,117,104,124,119,111,124,119,119,120,110,119,120,122,122,123,121,118,111,117,122,122,126,115,121,115,132,111,119,121,121,131,117,125,111,130,124,123,123,123,123,126,104,122,121,121,121,120,119,119,144,112,121,117,122,123,125,129,99,121,123,124,122,117,124,115,121,114,122,121,120,132,118,120,112,124,120,123,122,120,123,137,135,106,121,121,123,125,118,122,150,121,123,121,122,123,126,111,115
117,120,121,122,112,131,119,141,117,121,121,122,121,118,117,84,108,121,120,122,116,130,120,116,147,121,121,123,121,119,133,145,112,121,122,120,121,122,118,106,117,120,120,121,120,121,119,116,121,121,119,125,117,121,124,162,119,123,127,120,120,119,118,117,115,118,115,120,135,121,118,103,126,124,125,124,127,125,133,118,120,122,121,120,117,121,124,161,123,123,122,123,119,127,110,99,118,121,121,122,120,118,126,136,117,122,120,120,123,121,127,107,129,121,118,120,122,120,115,134,117,119,120,121,116,117,112,150
118,123,122,123,124,122,129,123,121,121,121,122,123,129,119,91,125,119,120,122,121,120,124,123,119,122,121,121,123,122,135,151,122,123,121,121,119,119,112,126,102,119,119,120,119,118,113,83,139,123,122,123,122,123,127,160,130,124,122,121,124,122,127,124,119,120,121,122,127,121,114,102,120,120,121,126,121,119,118,119,122,122,123,122,119,125,124,111,112,119,117,120,120,121,113,107,139,124,121,124,124,120,144,199,116,122,122,124,112,123,126,101,121,122,126,120,124,119,121,96,119,122,113,118,118,121,128,121
124,122,123,123,121,119,120,113,106,119,120,120,114,120,116,102,132,126,124,124,114,123,134,134,107,119,119,120,120,120,111,101,131,121,121,122,124,125,128,132,115,120,120,121,121,118,116,92,129,122,122,122,121,119,118,138,127,121,120,121,120,120,120,115,110,122,122,123,121,121,119,112,127,123,122,123,123,124,122,142,116,121,121,121,126,124,124,134,115,121,120,120,112,122,114,82,131,123,124,119,119,125,131,143,114,121,120,118,120,118,112,95,124,122,122,122,119,126,121,118,107,120,114,118,116,118,112,67
125,122,119,120,122,121,127,160,129,124,125,124,117,126,120,137,115,122,124,122,124,124,115,102,114,121,117,119,122,117,113,114,113,120,121,126,118,117,124,116,131,125,124,125,110,124,121,125,117,121,121,121,119,123,126,138,118,121,119,120,118,119,114,96,121,121,121,123,126,119,122,121,104,119,119,120,117,123,118,131,121,120,121,123,123,123,122,109,135,122,121,121,120,118,115,96,115,121,122,124,121,126,129,129,118,121,120,120,120,121,129,119,132,121,121,122,115,122,118,135,114,120,120,121,122,121,118,123
130,123,123,124,127,123,118,141,121,119,123,120,115,116,115,99,128,121,116,120,120,129,130,163,123,120,122,123,125,119,111,95,107,120,124,126,118,119,123,140,133,119,113,117,120,118,118,137,108,120,122,122,128,118,111,94,141,123,122,122,119,119,127,133,113,119,119,121,120,120,117,111,121,121,121,122,121,121,120,130,116,120,120,121,117,112,122,125,124,120,122,122,122,125,118,133,120,122,119,120,121,126,124,128,125,123,122,121,123,123,121,124,115,121,121,121,117,116,119,98,133,124,121,122,128,125,123,140
116,119,120,121,124,123,120,126,113,122,120,122,134,127,117,134,136,122,122,123,123,127,132,131,119,122,121,121,119,119,114,107,115,120,121,121,120,119,123,145,136,123,121,122,121,120,116,99,112,120,119,121,117,123,126,124,125,122,121,121,127,121,129,135,113,121,122,122,126,120,114,95,128,121,119,119,109,121,131,131,132,125,123,124,120,125,134,143,111,119,121,122,119,118,118,96,120,120,119,118,114,125,122,116,133,123,122,124,123,124,124,145,121,122,125,123,117,120,113,95,124,120,112,118,118,119,120,140
126,123,123,123,122,124,123,141,120,122,123,123,123,120,126,127,118,122,122,122,122,121,122,97,116,119,119,121,118,120,118,130,124,121,121,122,122,122,120,111,115,122,121,121,120,121,120,134,138,124,123,123,124,121,126,119,113,122,121,122,116,122,127,129,126,122,122,122,122,121,118,133,120,122,121,123,120,122,125,131,120,122,121,122,123,123,123,115,119,121,121,122,118,120,120,130,122,119,119,119,115,122,124,123,121,122,121,122,121,121,114,108,121,123,123,123,116,121,125,126,121,122,122,122,118,120,119,114
117,120,120,121,121,120,121,120,121,123,122,123,124,122,129,123,121,121,121,122,128,119,111,121,120,121,119,120,119,118,115,116,116,121,121,123,121,122,128,119,125,122,122,125,119,116,118,125,116,121,121,123,122,121,123,101,131,122,122,122,122,121,121,161,122,121,120,121,116,119,116,112,113,121,121,121,118,118,115,95,114,123,123,123,124,122,123,110,122,121,120,121,120,121,119,117,118,119,120,122,120,121,121,123,120,122,121,121,120,126,122,112,120,120,120,121,122,119,118,118,123,122,121,122,122,119,121,122
111,120,121,122,121,120,126,114,127,121,120,120,121,121,120,185,127,124,123,123,116,121,127,121,114,120,121,122,122,120,116,113,123,121,121,122,122,119,117,112,121,121,120,121,116,122,122,127,118,123,122,122,114,121,116,127,113,120,121,122,119,118,112,112,125,123,122,123,121,119,127,135,128,122,121,121,118,120,120,138,116,120,120,121,141,110,117,95,118,121,121,121,118,119,120,127,123,122,121,121,122,120,122,125,122,121,121,122,120,120,123,128,119,120,120,121,120,120,109,118,121,122,122,123,125,120,121,140
123,123,123,123,121,119,114,98,129,122,120,121,124,120,118,132,121,121,121,122,120,123,129,102,121,120,120,121,120,118,115,139,126,122,122,124,128,119,122,119,115,122,121,122,123,122,120,104,120,122,121,121,123,120,113,120,121,122,121,121,119,120,123,117,119,121,120,121,122,119,118,121,125,121,121,121,121,120,109,116,120,121,119,121,121,120,122,125,117,121,121,121,121,124,119,116,124,120,121,122,117,120,125,137,123,121,121,122,129,122,117,125,124,122,121,121,124,122,125,111,115,120,120,121,136,119,117,104
115,119,119,120,119,118,122,125,119,122,121,121,123,122,121,107,128,123,122,123,120,124,124,127,116,122,121,122,123,121,124,115,118,121,121,121,119,118,110,123,126,121,122,123,125,124,136,135,112,120,119,120,120,117,119,110,124,121,121,121,121,122,120,118,122,122,120,121,122,117,116,114,117,120,121,122,122,127,127,137,115,121,119,122,119,122,120,109,121,121,120,121,122,120,110,124,117,120,121,121,120,122,123,113,126,124,122,123,126,121,131,129,122,121,120,122,117,117,113,109,119,121,120,120,121,121,121,123
119,121,119,120,118,119,115,112,109,121,121,121,121,121,125,109,133,122,121,121,120,120,124,119,109,121,121,122,119,121,119,108,124,122,121,121,120,124,114,127,116,121,120,122,120,121,119,103,121,121,120,120,120,120,123,128,131,122,122,123,125,122,126,143,119,121,121,122,124,122,124,131,120,122,122,122,118,124,122,106,120,120,119,120,123,123,131,137,116,122,121,122,135,121,121,114,120,121,121,121,120,121,119,113,122,121,121,121,120,120,120,120,122,121,121,122,121,126,123,111,130,122,121,122,116,120,121,131
120,121,119,120,120,120,123,127,124,122,122,123,125,122,126,132,115,121,121,122,120,118,119,104,126,123,122,123,117,124,128,143,117,121,121,122,121,119,113,85,131,122,121,121,121,123,125,160,118,121,120,121,119,122,119,111,121,119,120,122,122,119,118,117,115,123,121,122,120,121,119,113,114,122,122,124,120,120,121,139,120,122,121,122,120,122,124,132,122,120,120,122,123,120,118,126,118,121,120,120,117,120,118,87,121,124,123,124,123,124,125,160,122,120,121,121,121,120,123,109,121,121,121,122,122,121,117,117
122,121,121,122,125,123,126,134,118,122,121,122,122,122,118,104,124,121,120,121,119,124,117,111,124,122,122,122,121,122,129,170,126,123,123,124,125,124,118,100,112,122,121,121,122,121,122,106,120,121,121,121,119,121,119,122,123,122,122,121,119,118,122,120,114,122,121,122,121,120,123,130,125,121,121,121,117,119,118,110,123,123,121,122,121,126,127,110,124,122,121,122,121,120,126,154,117,120,121,122,122,119,116,103,121,122,121,123,120,123,128,131,120,122,121,122,122,121,119,122,121,122,121,123,121,120,122,117
122,121,121,122,122,121,122,125,117,121,121,122,122,121,119,109,118,122,121,122,121,120,119,119,134,121,120,121,121,121,120,137,118,121,122,123,122,123,125,128,119,121,120,120,119,120,113,135,118,122,122,122,123,122,131,129,120,121,121,122,121,119,117,119,122,121,120,121,124,121,115,107,113,120,121,123,123,124,128,131,122,124,122,122,122,123,132,124,125,121,120,121,117,122,123,148,119,121,120,122,120,119,119,102,119,119,120,121,120,121,123,115,108,121,121,122,121,117,114,100,131,122,122,123,122,123,131,137
118,120,120,121,123,121,127,123,120,122,121,122,121,119,117,126,122,121,120,120,121,121,118,108,116,121,121,122,120,121,119,131,118,120,121,123,128,122,128,129,124,121,121,122,121,121,122,109,120,120,121,121,124,120,118,120,113,122,121,123,130,126,126,125,119,121,120,120,120,119,120,107,123,122,120,121,112,123,127,139,126,123,122,122,121,122,126,127,121,122,121,122,123,123,120,111,119,121,120,121,119,120,133,152,116,120,120,120,120,116,111,100,118,122,121,122,122,118,113,105,138,122,122,123,121,130,129,165
126,121,121,122,122,120,124,116,115,122,120,121,124,119,118,109,117,121,121,121,120,118,119,122,122,121,120,120,119,120,118,123,117,121,120,121,122,120,126,114,114,120,121,123,115,121,123,113,121,121,120,121,121,121,118,119,119,120,121,123,128,123,118,108,123,121,121,124,142,129,121,134,120,122,121,122,116,118,119,103,112,121,121,122,123,112,123,129,127,122,122,123,122,121,122,123,113,120,120,121,121,122,119,114,119,123,122,123,122,123,119,109,119,120,120,121,123,119,119,116,123,122,121,123,125,125,128,135
116,120,121,122,122,125,118,113,121,121,121,121,121,117,117,115,114,121,121,121,119,118,121,131,118,121,121,123,123,123,123,121,122,122,122,123,121,120,120,131,118,121,120,121,121,119,119,111,118,120,120,121,121,121,123,123,117,121,120,122,121,120,118,119,122,120,121,121,120,119,114,78,121,122,122,124,130,120,127,175,112,122,123,122,125,120,122,88,119,122,121,121,114,121,116,108,119,122,121,122,125,119,120,111,121,121,121,122,121,120,119,121,121,120,120,122,121,121,116,121,123,122,121,121,119,121,125,124
119,121,122,123,116,124,121,116,113,122,121,123,124,120,121,118,130,122,122,122,120,119,119,124,118,121,120,122,121,119,127,137,124,122,121,122,122,124,118,106,116,120,120,122,121,120,116,104,122,122,122,122,119,119,125,127,117,120,121,123,129,119,122,132,119,120,120,122,122,120,124,132,117,121,121,122,124,121,111,118,120,121,120,123,127,119,119,122,127,121,121,121,119,121,121,124,118,121,120,120,120,122,123,122,121,122,121,121,123,121,120,104,119,122,121,122,121,119,120,116,123,123,123,125,117,124,117,139
115,121,121,122,121,120,119,131,123,120,121,122,125,121,121,117,129,121,120,121,119,121,123,125,109,121,121,122,123,119,120,105,123,119,119,121,121,120,119,115,122,122,121,122,121,120,122,124,120,121,120,121,121,120,119,119,119,121,121,121,122,124,125,120,115,121,120,122,127,119,119,126,123,122,122,123,119,122,120,104,122,121,121,121,114,119,121,128,117,120,120,121,121,121,121,119,122,125,122,123,122,122,125,124,118,120,120,122,128,123,117,119,124,122,120,121,124,120,122,120,120,121,121,121,122,122,121,135
118,122,122,122,122,121,122,107,122,121,120,122,124,121,123,129,124,121,121,122,122,121,120,115,115,120,120,120,118,119,117,113,116,124,121,122,126,125,123,169,135,124,122,123,124,123,131,117,115,120,119,120,121,119,117,106,121,121,120,121,119,119,119,113,121,122,121,121,119,119,119,120,122,121,121,122,122,123,126,127,119,120,120,121,119,121,119,117,119,121,120,121,119,121,120,123,126,121,119,119,119,117,123,127,123,123,122,123,125,123,123,124,113,121,121,122,117,121,126,131,122,122,121,122,122,125,119,104
118,120,120,122,122,123,117,107,124,122,121,122,122,123,125,127,122,120,121,122,118,120,123,130,117,121,121,121,120,121,120,120,120,119,119,120,120,119,119,123,123,124,122,123,116,126,134,134,114,121,121,122,121,121,119,108,126,121,121,122,120,125,129,126,112,120,121,122,122,121,123,103,126,122,121,122,120,119,120,118,120,123,121,122,120,119,115,120,117,121,121,122,121,122,129,127,116,120,120,121,120,120,117,108,121,122,122,123,120,121,118,117,119,120,120,122,125,119,116,123,123,121,121,121,122,121,122,142
123,123,122,122,121,123,128,129,122,121,121,122,120,120,125,134,121,122,121,121,121,120,124,142,125,123,122,123,121,129,127,148,117,120,120,122,126,118,119,112,125,121,121,122,121,120,119,126,120,122,121,121,120,118,117,119,125,122,121,122,120,125,121,120,115,122,122,123,126,118,119,115,122,121,121,122,121,120,118,125,121,122,121,122,118,119,121,110,115,121,121,122,122,120,119,117,118,121,121,122,121,121,121,118,122,119,120,121,120,122,121,105,114,122,121,122,122,122,128,129,123,120,121,121,120,119,116,116
127,122,121,122,121,122,125,134,110,120,120,121,121,120,116,102,127,122,122,121,119,121,123,125,118,121,121,121,118,117,119,117,124,123,122,121,125,126,131,135,117,119,120,121,121,116,115,151,119,122,121,122,120,118,118,114,125,122,121,122,128,124,121,115,113,122,122,122,124,118,115,102,131,121,121,122,114,124,119,126,113,121,120,121,125,124,121,132,118,120,121,122,115,116,124,113,123,122,121,122,133,121,121,103,125,123,121,122,117,120,130,147,124,121,122,122,120,122,121,112,118,121,121,122,125,119,118,131
122,120,120,121,120,119,121,118,121,121,121,122,123,121,124,118,115,121,121,121,115,121,120,106,126,123,121,121,122,120,125,142,121,122,121,122,122,122,125,115,125,121,120,121,124,122,124,124,116,121,120,120,121,119,122,122,121,120,121,122,122,123,131,117,118,121,120,121,122,123,118,123,120,122,121,122,126,122,125,105,117,121,121,122,121,120,120,124,123,123,121,121,122,123,124,126,117,121,120,121,120,120,117,107,118,122,121,123,124,124,123,138,124,119,120,121,118,118,116,114,108,123,121,121,121,119,115,105
122,121,121,122,122,121,126,146,124,122,121,122,117,119,120,118,120,122,121,122,122,126,119,112,114,121,120,121,119,118,120,111,120,121,121,122,125,126,120,147,128,121,121,122,125,123,115,94,115,120,120,121,123,121,123,117,120,122,120,121,120,118,118,128,121,123,122,122,121,124,119,126,120,121,120,121,116,120,115,91,121,122,121,122,125,125,135,141,119,120,120,121,120,119,116,113,120,121,121,121,121,125,117,119,123,123,121,121,121,121,122,117,118,121,120,121,120,120,127,124,116,120,120,121,120,121,116,121
124,121,121,122,120,125,121,112,131,122,121,121,121,122,125,126,111,120,120,122,122,120,120,107,127,122,121,122,117,121,122,124,125,121,120,121,120,122,119,121,116,122,121,121,121,122,122,117,124,120,121,122,121,120,120,116,123,121,121,122,119,118,117,109,114,120,120,122,125,116,125,123,118,122,122,122,125,127,121,131,117,120,121,123,120,118,120,111,118,121,121,120,120,119,118,107,126,121,121,122,118,120,121,132,118,121,120,121,122,121,124,122,121,120,120,121,121,120,118,119,115,122,121,122,122,123,125,102
127,122,121,122,121,120,120,140,115,121,121,122,119,118,116,107,116,122,121,122,118,128,115,116,120,122,121,122,120,119,119,127,118,121,120,122,121,121,122,119,118,120,121,122,121,120,121,129,116,122,121,122,121,121,123,124,126,120,121,122,121,122,126,127,117,121,121,122,126,122,120,116,121,121,121,122,117,120,121,102,115,120,120,122,121,118,116,100,127,121,121,122,122,122,119,144,119,121,121,122,126,122,121,123,120,121,121,121,125,124,117,111,120,122,122,122,126,120,115,110,129,122,121,123,134,121,124,142
122,121,121,122,118,120,122,119,121,122,121,122,121,123,120,123,121,122,122,122,118,117,120,119,124,122,121,121,116,118,118,123,120,123,122,122,123,121,126,122,120,121,121,122,122,122,119,117,118,121,121,122,125,124,116,114,119,122,121,121,112,121,126,116,127,122,122,123,129,122,123,133,116,120,121,122,121,120,118,119,123,123,121,121,119,121,123,122,119,120,120,122,122,120,118,112,117,120,120,122,121,119,115,121,125,123,122,122,126,120,120,110,119,122,122,123,127,126,128,122,121,122,121,122,122,120,123,128
121,121,120,121,121,120,124,137,125,121,122,122,121,119,117,107,117,121,121,122,122,122,120,117,122,122,121,121,121,122,122,124,117,122,122,122,124,120,125,119,128,122,121,123,128,125,116,129,118,121,120,121,122,120,126,125,124,121,121,123,124,120,122,121,114,121,121,121,118,117,121,102,126,121,121,121,120,121,123,126,118,121,121,121,119,118,113,109,125,122,122,122,120,121,131,123,123,122,121,122,123,121,129,128,120,121,120,120,120,120,118,122,118,121,121,122,118,121,117,115,120,121,121,122,120,119,118,113
122,121,121,122,122,122,123,128,118,120,120,121,123,120,121,112,124,121,120,122,121,121,126,132,117,123,122,122,122,123,119,130,125,121,122,121,120,119,122,123,116,121,122,122,120,123,119,124,124,121,120,121,121,121,121,107,117,120,121,122,116,121,120,117,121,121,121,121,115,122,126,132,120,122,121,121,120,120,122,130,121,121,121,122,122,121,120,124,119,121,120,121,120,121,117,101,125,121,121,122,122,121,121,123,119,121,121,122,122,123,122,117,118,121,121,121,121,118,120,121,119,121,121,122,126,120,110,116
121,121,121,122,122,128,127,128,121,121,121,122,121,121,125,117,122,122,122,122,121,122,117,115,123,121,121,121,120,120,117,135,122,122,121,122,121,121,121,117,117,121,120,121,116,122,116,111,123,122,121,121,119,119,117,123,125,120,120,121,120,121,121,138,117,122,121,122,121,121,118,111,123,122,122,123,123,119,116,116,115,120,119,120,125,119,119,108,126,122,122,123,119,121,123,129,121,122,121,122,128,124,121,113,115,120,120,121,120,119,120,115,119,121,121,122,122,123,120,120,112,121,121,121,121,119,118,111
121,122,121,122,121,120,125,124,121,122,121,122,121,122,120,118,122,121,121,122,121,121,120,111,114,122,121,122,122,123,121,122,127,122,122,122,118,119,118,116,115,122,121,123,128,122,125,130,127,120,120,121,118,123,121,114,120,121,121,122,121,120,116,116,114,121,121,122,120,120,120,115,124,121,121,122,122,122,122,113,119,121,121,122,124,121,123,122,122,121,121,122,121,121,110,115,119,120,120,121,121,121,121,129,116,122,121,122,118,121,121,110,122,122,121,122,122,121,123,124,119,120,121,122,122,121,123,120
121,121,121,122,121,119,119,118,119,121,121,122,119,120,122,111,126,122,121,122,123,120,124,149,116,121,121,122,121,119,114,104,116,121,122,122,120,121,120,113,124,121,121,122,121,119,118,121,117,122,121,121,121,120,118,113,122,121,122,122,121,122,119,121,118,121,121,122,124,118,116,118,125,121,120,121,121,120,120,112,117,120,120,121,123,121,123,124,122,122,121,122,121,122,123,134,121,122,122,123,125,123,119,117,123,122,122,122,120,124,123,118,113,121,120,122,121,121,124,121,126,121,121,122,121,120,121,123
122,122,120,121,119,122,118,116,113,121,121,122,121,120,124,139,122,121,120,122,123,122,119,120,122,121,121,122,119,121,125,136,128,122,121,122,122,122,128,131,124,120,120,121,124,120,121,127,115,121,121,121,123,120,120,121,120,122,120,121,124,123,127,121,121,121,121,121,121,122,124,119,120,122,121,122,121,120,117,124,120,122,120,121,120,119,121,119,124,122,122,122,121,122,126,123,120,121,122,122,124,120,121,134,120,125,122,121,117,121,121,113,127,120,121,121,121,123,130,131,124,121,120,121,120,121,117,124
118,121,121,121,118,120,120,118,123,124,122,122,124,123,121,110,125,121,120,120,119,119,118,123,117,119,119,121,124,121,118,124,121,122,120,121,121,120,126,127,116,121,121,122,121,124,119,110,132,122,121,122,123,121,122,117,119,121,120,121,114,119,119,110,126,122,122,122,122,123,127,147,121,123,122,122,123,121,121,112,118,120,120,120,121,121,122,114,119,120,121,122,122,121,118,120,116,121,120,121,117,118,119,109,121,122,121,123,127,121,120,121,124,121,121,121,119,119,118,111,119,120,121,122,121,120,121,133
118,121,120,121,121,120,119,113,126,122,121,121,120,120,122,125,116,120,121,122,112,127,120,125,130,122,123,122,120,119,119,120,129,122,122,123,121,121,129,136,115,121,121,121,121,119,117,113,117,122,121,122,122,122,125,135,126,123,121,121,122,121,128,103,121,122,120,121,119,123,116,121,120,123,122,122,122,120,121,116,125,123,122,122,119,124,126,142,124,122,121,122,125,119,119,113,121,121,121,122,121,121,121,127,117,122,122,122,120,120,115,119,122,123,121,123,119,121,122,123,115,120,121,122,121,120,120,98
117,121,121,121,121,120,115,122,127,122,121,121,120,120,125,115,119,120,121,121,121,121,118,120,112,120,121,122,121,120,122,108,130,123,121,123,122,121,123,124,118,122,121,122,120,122,120,122,121,121,122,123,129,118,120,114,120,121,122,122,117,122,118,133,119,121,121,121,120,118,125,107,118,122,121,123,115,127,115,140,123,121,121,122,121,119,119,112,121,122,122,122,121,119,117,114,119,121,120,122,121,123,120,116,119,121,121,122,123,121,125,132,125,122,121,122,119,120,120,114,114,120,121,122,121,121,120,125
119,122,122,121,121,120,117,113,127,122,122,122,122,120,122,126,120,121,121,122,121,121,124,122,120,121,120,122,122,122,123,118,122,121,121,121,120,120,122,125,119,122,121,122,121,122,122,137,122,121,122,123,121,124,125,116,119,120,121,122,122,120,118,122,127,123,122,121,121,121,120,123,117,120,121,121,125,122,126,110,116,122,121,122,120,120,117,114,122,122,121,122,121,120,123,124,120,121,121,122,121,122,120,115,122,122,122,123,122,122,122,120,117,120,121,122,121,122,119,112,117,122,121,122,121,121,123,115
128,121,121,122,122,122,130,138,114,121,122,121,121,119,115,122,127,121,121,122,127,118,121,120,128,122,121,121,118,120,124,133,119,120,121,122,117,121,118,112,117,122,122,122,123,120,124,135,117,121,121,122,117,121,119,108,119,120,120,121,121,120,118,120,118,119,120,122,122,121,122,126,118,121,121,122,121,121,120,115,120,121,121,123,135,122,128,144,122,121,121,121,119,121,123,115,118,120,121,122,120,122,126,117,128,122,122,122,122,120,120,124,117,120,120,121,120,119,116,119,131,124,122,122,122,122,124,131
121,121,121,122,121,121,122,125,110,119,120,121,121,120,118,109,131,124,122,123,127,124,127,127,107,120,120,121,122,118,119,107,132,121,121,122,123,122,122,137,115,120,121,121,121,120,120,109,125,121,121,122,122,122,119,130,118,121,120,121,121,121,128,119,120,121,120,122,121,124,119,118,117,121,121,121,120,121,125,131,122,122,120,121,121,123,123,119,121,122,120,122,121,121,126,124,121,121,120,121,120,120,119,111,120,121,120,122,121,121,118,120,131,121,121,123,131,122,128,127,115,119,120,121,120,122,121,114
120,122,120,121,120,120,117,119,121,122,120,121,121,121,125,135,120,120,121,122,120,122,120,126,123,123,121,122,121,122,122,109,115,122,120,121,121,120,120,117,117,121,121,122,122,122,121,112,128,122,120,122,121,121,125,136,118,121,121,121,121,121,118,114,118,121,121,122,120,121,122,123,127,122,121,122,121,120,118,126,125,121,121,122,120,121,122,136,115,120,120,121,122,121,121,120,124,122,121,122,122,122,122,132,123,121,120,121,129,121,124,121,121,121,121,122,116,121,113,118,117,121,121,123,123,122,122,115
122,121,121,123,129,121,116,118,122,123,123,124,128,123,122,123,116,120,121,122,121,120,118,125,119,120,120,121,121,120,117,116,120,121,121,122,121,121,120,119,117,121,121,122,122,118,118,118,129,122,121,122,123,128,121,131,113,119,120,121,122,119,118,118,120,122,122,123,122,120,125,134,119,121,121,121,121,124,125,119,120,121,121,123,125,120,126,123,119,120,120,121,120,120,119,126,122,122,122,124,123,124,129,119,125,121,121,122,122,121,122,123,117,121,121,122,121,123,121,107,117,122,120,121,119,118,116,118
132,122,121,121,119,120,116,120,118,121,121,122,122,121,121,136,119,121,121,121,114,120,121,123,119,122,121,122,125,122,121,121,126,122,121,121,117,121,126,127,120,121,121,122,122,121,120,110,118,121,121,122,121,125,119,118,121,121,121,122,122,120,122,129,121,122,122,123,121,121,121,116,117,122,121,122,121,120,121,116,126,121,121,121,121,121,122,131,122,122,122,122,125,120,121,112,115,121,120,121,121,121,121,109,117,122,121,121,121,120,121,138,121,121,121,122,121,121,118,117,113,120,121,122,120,122,122,118
121,122,121,122,121,120,119,119,123,123,121,122,121,121,130,140,119,122,122,122,121,121,115,113,128,121,121,122,122,123,121,128,119,121,121,121,120,120,118,117,120,120,120,121,121,120,122,119,118,121,121,122,121,121,122,120,126,121,121,122,121,122,122,133,121,121,120,121,117,121,128,115,114,121,121,122,120,121,122,124,119,122,120,121,118,120,119,114,131,121,120,121,120,121,124,129,118,121,121,121,119,120,119,124,121,122,121,122,120,121,121,112,112,119,120,121,119,120,122,118,131,121,121,121,123,123,121,130
