121,122,121,122,121,120,122,123,120,120,119,121,121,121,120,120,120,122,120,121,121,121,122,119,120,121,121,122,122,122,121,119,120,121,121,122,122,121,122,121,120,122,121,122,122,121,119,121,121,122,121,122,121,121,122,120,120,121,121,122,122,121,120,120,120,121,120,121,120,121,120,120,120,122,121,122,121,122,120,120,121,122,121,121,121,121,121,120,121,122,121,121,121,120,120,119,121,121,120,121,121,122,123,121,120,121,120,121,120,120,119,120,121,122,121,122,121,120,121,122,119,120,120,121,121,121,123,118
121,122,121,121,120,121,123,119,120,121,121,122,121,122,120,121,121,122,122,121,121,121,123,118,121,122,121,121,120,121,122,121,120,122,120,121,121,121,121,123,120,121,121,122,121,120,120,119,121,121,121,122,122,122,123,122,122,122,122,122,121,121,121,120,120,121,121,122,121,120,120,119,118,119,120,121,121,121,122,120,122,123,122,122,122,121,121,118,121,123,122,122,121,122,123,122,120,122,121,122,121,120,121,120,120,121,121,122,122,121,122,119,119,120,120,122,121,122,122,118,120,122,122,122,121,120,123,121
122,122,121,121,121,121,120,122,122,122,120,121,121,121,120,122,120,122,121,122,121,121,122,119,121,121,121,121,121,121,119,119,121,121,120,122,120,121,121,120,120,121,121,121,120,121,123,120,121,122,121,121,121,121,124,122,121,122,122,121,120,121,122,121,120,122,121,122,120,120,120,119,120,122,121,122,121,122,121,121,120,122,121,121,120,121,121,120,120,121,121,122,121,121,121,121,121,123,122,122,122,121,122,122,120,120,120,121,121,121,122,119,119,120,121,122,121,122,120,119,121,122,121,122,121,120,118,121
120,121,120,122,121,122,122,122,121,121,120,121,121,121,122,123,120,122,121,122,122,122,121,119,120,120,120,121,121,121,120,118,119,120,120,122,121,121,119,119,121,123,122,123,121,121,120,120,121,122,121,121,121,121,121,121,121,122,121,122,122,121,121,119,120,121,121,122,121,122,122,120,121,121,121,122,121,121,121,120,120,121,121,122,120,120,122,120,120,121,121,122,122,121,122,120,120,121,121,121,122,121,122,121,121,121,121,122,121,120,119,119,120,121,120,122,121,121,120,121,121,122,122,122,122,121,121,120
120,121,120,121,121,121,121,122,120,121,121,122,121,121,122,120,120,121,121,122,121,122,120,121,121,122,121,122,121,120,122,120,119,120,121,122,121,121,122,120,121,120,120,121,121,121,122,122,121,121,120,121,121,121,119,119,121,122,121,122,121,121,123,121,120,122,121,122,121,120,121,119,122,122,122,121,121,121,121,118,120,120,120,122,122,120,122,122,120,121,121,121,120,121,122,121,119,121,121,122,121,121,123,120,121,121,121,122,121,121,120,119,121,122,122,122,121,120,120,120,121,123,122,122,122,122,122,122
120,122,121,121,120,121,121,119,121,121,121,121,120,120,121,121,121,121,121,122,121,120,124,120,121,121,121,121,121,121,121,121,120,122,121,122,121,121,120,120,120,121,121,122,121,121,122,121,120,121,121,121,120,120,120,120,120,121,121,122,121,121,123,121,121,122,121,122,122,121,119,119,120,121,121,122,122,122,121,119,119,120,120,122,121,122,122,120,121,121,120,121,121,121,121,121,120,122,121,123,122,121,121,119,121,121,120,121,121,121,123,121,120,122,121,122,121,121,122,119,120,121,121,122,121,121,121,121
121,121,120,121,120,121,120,120,120,121,121,122,121,121,120,121,121,122,121,121,121,122,123,120,120,121,121,122,121,121,121,120,120,121,120,121,121,121,119,121,120,121,121,122,121,121,122,118,120,121,121,122,121,121,121,120,120,121,121,122,121,122,121,120,120,121,121,122,121,121,122,120,120,122,121,122,121,120,120,121,121,122,120,121,122,121,122,121,120,121,121,121,120,120,121,121,120,120,120,121,121,121,120,120,121,122,122,122,122,121,122,122,121,121,120,122,121,121,121,122,121,123,121,121,121,122,125,121
120,122,121,122,120,119,118,118,120,122,121,121,121,121,123,120,120,121,121,122,121,122,123,121,121,122,122,122,121,120,123,121,120,122,121,122,121,121,119,120,119,120,121,122,121,121,121,119,122,123,122,122,121,121,124,122,121,121,121,122,121,121,121,119,121,122,121,123,121,121,120,118,121,121,120,121,121,121,121,121,120,121,120,122,121,121,123,121,120,121,120,121,121,122,124,121,121,121,121,121,121,120,119,120,120,121,121,122,122,122,120,120,121,122,122,122,121,120,122,119,121,122,122,123,121,121,122,121
121,122,120,121,121,121,120,121,121,121,121,121,121,121,121,121,120,121,120,121,121,121,122,121,121,122,121,122,121,122,121,120,120,121,120,122,121,121,120,121,121,122,122,121,120,121,120,120,120,121,120,122,122,121,122,121,120,122,121,122,122,122,121,120,121,122,121,122,121,120,122,120,120,121,121,122,121,122,121,119,121,122,122,123,121,120,122,121,119,120,120,122,121,121,122,120,121,122,121,122,121,121,119,122,120,121,121,122,121,122,122,120,122,121,120,122,121,121,122,120,119,121,121,121,121,121,122,121
120,122,122,122,121,122,120,120,120,121,119,121,120,118,104,119,120,122,121,122,122,121,121,119,121,122,121,121,120,122,122,122,119,120,121,122,122,121,120,118,121,120,120,122,121,121,121,121,120,122,121,122,121,121,122,119,120,121,121,122,121,120,121,122,120,121,120,122,122,122,119,120,121,122,121,122,122,121,120,120,120,120,120,122,122,121,121,119,121,123,121,122,122,121,121,121,120,120,121,122,121,121,121,121,121,121,120,121,121,121,120,119,121,121,121,123,121,121,122,121,121,121,121,121,121,121,122,118
120,121,120,122,121,121,121,121,120,122,121,122,122,121,118,118,121,121,121,122,122,121,122,120,120,121,120,122,121,121,123,120,120,121,121,122,121,122,120,122,120,121,121,121,120,121,123,121,120,122,121,122,122,121,122,118,121,122,121,121,121,121,122,120,121,121,120,121,121,121,118,122,120,122,121,122,122,120,120,120,120,122,121,122,122,122,122,122,121,122,122,122,121,120,124,121,120,121,121,122,120,120,118,120,120,121,120,121,121,121,119,118,121,121,121,122,121,121,123,122,121,122,121,122,122,121,122,121
120,120,120,122,121,121,120,122,120,120,120,122,121,121,123,119,121,121,120,121,121,121,125,120,121,122,121,121,121,121,120,119,120,121,121,122,120,120,119,120,120,122,121,122,120,120,120,123,120,121,120,122,122,122,122,120,120,121,120,122,121,122,121,119,119,121,121,122,121,121,120,119,121,122,122,121,120,121,122,118,120,121,121,123,121,121,122,123,121,122,121,121,121,121,121,122,121,122,122,122,121,122,119,119,121,121,121,122,122,120,119,118,120,121,121,122,121,121,123,120,120,121,120,122,121,122,122,120
120,122,120,121,120,121,121,123,121,122,122,122,120,120,118,121,120,121,121,122,121,120,120,121,120,121,121,122,121,122,126,120,120,122,121,122,121,121,120,119,119,120,121,122,121,121,119,121,121,121,120,122,122,121,121,121,119,121,121,122,122,121,120,120,120,121,122,122,120,119,119,118,121,123,122,122,121,122,121,120,121,122,121,122,121,120,122,120,121,122,120,121,120,121,121,121,119,121,121,122,122,121,119,118,121,121,121,122,122,122,119,120,122,123,121,122,121,122,123,122,120,121,121,122,121,122,123,118
119,120,120,121,121,121,121,121,121,120,120,121,121,121,120,120,121,122,121,121,120,121,122,121,120,121,121,122,121,121,121,121,120,122,121,122,122,122,121,121,120,121,121,122,121,120,120,119,121,122,122,122,121,121,122,119,120,121,120,121,120,121,122,121,120,121,120,121,121,120,123,119,120,121,120,121,121,121,120,119,121,121,121,122,121,122,123,122,121,121,120,121,121,121,121,122,119,120,121,122,121,121,121,120,120,122,121,121,120,121,119,120,121,121,121,122,121,121,121,121,121,122,122,122,121,121,125,120
120,122,122,122,122,121,122,119,121,122,121,122,122,122,120,119,119,120,120,121,122,121,120,121,120,121,121,122,121,120,120,121,121,121,119,121,121,121,121,120,120,121,121,122,122,121,123,120,119,121,121,122,121,122,121,120,120,121,121,122,122,121,122,120,121,122,120,121,120,121,123,122,120,120,120,121,121,121,122,119,120,121,121,122,121,122,122,121,120,122,121,122,121,121,121,121,121,122,122,122,121,121,121,121,120,120,120,122,121,121,120,120,121,122,121,121,120,121,123,121,121,122,121,122,121,121,121,123
121,121,121,122,122,121,122,119,120,121,121,122,122,121,119,119,121,121,120,121,121,121,123,121,121,122,121,122,122,122,123,119,120,122,121,122,122,122,120,121,121,121,120,121,121,121,120,122,121,121,121,122,120,120,124,119,121,122,121,122,121,120,122,121,120,122,120,122,121,121,121,120,121,121,121,122,122,122,122,122,121,121,120,121,121,121,121,122,119,121,120,121,121,121,122,119,121,122,121,122,121,122,121,117,120,122,121,122,120,120,120,120,120,120,120,122,121,121,122,121,121,122,121,121,120,121,120,119
121,122,121,121,121,121,120,118,120,121,121,121,120,120,120,121,121,122,122,122,120,121,122,123,120,121,121,122,121,121,121,121,120,121,121,122,121,120,120,118,120,122,121,122,122,121,119,120,121,121,121,122,122,122,123,122,119,121,120,121,121,121,121,119,120,122,121,121,121,121,119,121,121,122,121,121,120,121,119,120,121,122,122,122,121,122,120,120,121,121,121,121,121,121,121,120,120,120,120,121,121,122,123,121,121,122,121,121,121,121,120,122,120,121,121,122,121,120,120,120,120,122,121,122,122,122,125,118
121,122,121,122,121,120,121,118,121,121,120,122,121,121,121,120,120,121,121,122,122,121,122,120,121,121,121,122,122,120,122,121,121,121,120,121,121,121,122,121,120,121,119,121,121,121,122,121,121,121,120,121,121,121,123,120,120,122,122,122,121,121,121,121,121,121,120,121,121,121,123,120,120,121,121,121,121,121,122,121,120,121,121,122,121,120,119,121,121,122,121,122,121,121,123,120,120,121,120,121,121,121,122,121,120,122,121,122,121,120,119,121,119,121,121,122,122,121,121,121,121,121,120,121,121,121,122,120
121,122,121,122,120,121,121,118,120,121,120,121,121,121,119,121,120,122,121,122,121,121,123,120,119,121,121,122,122,121,121,121,121,121,120,121,121,120,123,122,120,121,120,121,121,121,120,119,121,122,120,121,121,121,122,119,119,120,121,122,121,121,121,119,120,121,121,121,121,121,120,119,121,122,121,122,121,120,122,121,120,122,121,122,121,121,122,120,121,122,121,122,121,120,120,120,119,121,121,121,120,121,122,120,121,122,122,122,121,122,123,120,121,122,120,121,121,121,121,121,121,122,121,122,120,120,122,119
121,121,121,121,121,121,120,120,121,121,121,122,121,121,118,121,120,122,121,122,121,122,121,121,120,121,121,122,121,121,122,121,121,121,120,121,121,121,121,121,121,122,121,121,121,121,120,120,121,123,121,121,120,121,123,121,120,121,119,121,122,121,121,122,120,120,120,122,122,121,119,119,120,121,121,122,122,121,122,118,121,122,121,123,122,122,122,119,120,121,120,122,121,121,122,122,120,121,121,122,121,122,122,120,119,120,121,122,121,121,120,120,121,122,121,121,120,121,120,121,121,122,122,122,121,120,122,119
120,122,121,122,120,121,122,120,120,121,121,122,121,122,121,120,120,121,120,121,121,122,122,120,121,122,122,122,121,121,121,121,121,121,120,122,121,121,122,119,120,120,119,121,121,121,121,120,120,121,121,122,121,121,122,119,121,122,122,123,122,121,119,122,121,121,120,122,121,120,120,118,120,121,120,121,121,121,119,122,121,121,120,121,121,121,124,121,122,122,121,122,122,121,123,120,121,121,120,122,121,122,122,122,120,120,119,121,121,121,119,120,121,122,120,121,121,120,122,121,120,121,121,122,121,121,122,119
122,123,121,122,122,121,121,123,120,121,121,122,121,121,124,120,121,121,120,121,121,121,120,121,121,122,121,122,121,121,122,119,121,122,121,122,120,120,120,120,120,121,120,121,121,121,119,120,120,122,121,122,121,121,122,119,119,120,120,122,121,120,120,121,120,121,120,122,121,121,121,120,121,122,121,121,121,121,121,122,120,121,121,122,121,122,122,119,120,122,121,121,121,121,122,119,121,121,121,122,120,120,121,121,120,121,120,121,121,121,121,120,119,121,121,122,121,121,121,120,121,121,120,122,121,121,122,120
120,122,121,121,120,121,121,120,121,122,121,122,121,122,121,120,120,121,121,122,121,121,119,120,120,122,122,122,121,120,122,120,120,121,120,121,121,121,120,121,120,121,121,121,120,120,122,121,121,121,121,122,121,122,121,121,121,121,121,121,120,121,121,121,120,120,120,121,121,121,121,120,120,121,121,122,121,121,119,119,121,122,121,121,120,120,121,121,121,122,120,121,121,121,125,119,120,122,121,122,122,121,119,122,120,120,121,122,121,121,119,119,121,122,121,122,121,121,123,119,121,121,120,121,121,122,123,121
120,121,122,121,121,121,120,119,120,121,121,122,121,121,121,119,121,122,121,121,120,120,119,120,120,121,121,122,121,120,121,119,120,122,122,122,121,120,119,122,120,120,121,122,121,122,122,120,120,122,121,122,122,121,122,120,121,122,122,123,122,121,122,119,121,121,121,122,121,121,119,119,120,121,120,121,121,121,119,120,120,121,121,122,121,121,119,119,121,121,120,122,122,121,121,119,121,122,121,121,121,121,123,122,119,121,121,122,122,122,120,121,121,121,121,122,122,121,122,119,120,120,120,122,121,121,123,120
120,121,121,122,121,121,122,120,120,121,121,122,121,121,118,123,120,121,121,122,121,121,120,119,120,121,121,122,121,121,124,119,121,122,122,123,122,121,122,118,119,120,120,122,122,121,119,121,121,121,121,122,121,121,120,118,121,121,121,122,121,122,122,121,121,122,121,121,121,121,123,121,119,120,120,121,121,121,120,120,121,122,121,122,122,121,121,120,120,122,121,121,121,121,120,121,119,121,121,122,122,120,122,121,120,121,121,122,121,122,123,119,121,122,121,122,122,121,121,120,121,122,120,121,121,121,122,121
121,122,122,122,121,120,118,119,120,122,121,122,121,121,120,120,121,121,121,122,122,120,120,120,121,122,120,121,121,121,121,120,120,121,121,122,121,121,120,119,121,121,120,122,122,121,123,119,120,122,122,122,121,120,120,121,121,122,121,122,121,120,123,119,120,121,121,123,122,121,120,119,119,120,121,122,121,120,118,119,120,120,121,121,121,122,123,120,121,121,121,121,121,121,123,122,121,122,121,122,121,120,119,120,119,120,121,122,121,121,121,118,120,121,121,122,122,121,123,121,120,120,120,122,122,121,121,120
120,122,121,121,121,120,120,120,119,121,121,122,121,121,118,119,121,122,121,122,121,121,122,120,122,122,121,122,121,121,122,121,120,121,120,121,121,121,121,121,120,121,121,122,122,120,121,120,121,122,121,122,120,120,120,119,121,122,121,123,122,121,122,121,120,121,121,122,121,121,122,121,121,121,121,122,121,120,119,120,121,122,121,121,121,121,122,121,119,120,121,122,121,120,120,121,121,122,121,122,120,121,121,120,121,121,121,121,121,121,122,121,120,121,120,121,121,120,122,119,119,120,120,121,121,121,121,120
120,121,122,122,122,121,122,121,121,121,121,121,121,121,120,120,120,121,121,122,121,121,120,119,121,122,122,122,121,120,119,120,120,120,120,121,121,121,122,121,119,119,119,120,121,121,119,121,122,122,120,121,121,121,124,122,121,122,121,121,121,121,123,118,121,122,121,122,121,122,120,120,121,122,121,121,121,120,120,121,120,121,121,122,121,121,122,120,121,121,121,121,121,121,120,121,120,121,120,122,121,120,119,120,120,121,121,122,121,120,123,118,120,122,121,122,121,120,121,120,119,121,121,122,121,122,119,121
121,121,121,122,121,121,120,119,120,121,121,122,121,121,121,122,120,121,120,121,121,121,119,119,120,121,121,122,122,120,120,120,120,121,121,122,121,122,122,121,121,121,121,122,121,121,121,120,121,122,122,123,122,121,122,121,121,121,120,121,121,121,122,121,119,120,120,121,121,122,119,119,121,121,121,121,122,121,120,118,122,122,121,121,121,121,123,121,120,122,121,121,120,120,121,118,119,121,121,122,121,121,122,121,122,122,121,122,121,121,121,123,121,121,120,121,121,121,120,122,120,121,121,122,122,121,121,120
121,121,120,121,121,121,121,119,119,120,121,121,121,121,117,119,121,122,121,123,122,121,122,120,120,121,121,121,121,121,123,122,121,121,120,121,121,121,120,119,120,122,121,122,121,121,119,120,121,122,121,122,122,121,121,121,120,121,120,122,121,121,124,118,121,122,121,122,121,121,120,121,120,122,121,122,121,120,120,120,120,121,121,122,122,121,123,121,121,121,121,122,121,121,122,118,120,122,121,122,122,121,119,121,120,122,121,121,121,121,119,119,120,121,121,122,121,120,120,122,119,121,120,122,121,122,122,121
121,122,121,121,121,121,120,120,121,121,120,121,121,121,120,118,119,120,121,122,121,122,122,121,121,121,121,122,121,120,120,121,121,123,121,122,120,121,121,121,121,122,121,121,121,121,118,121,120,120,121,122,121,121,120,120,120,120,120,122,121,121,122,120,122,122,120,121,121,121,121,120,120,121,121,122,122,122,122,122,120,121,120,121,121,121,122,119,121,122,121,122,121,121,120,121,120,121,121,121,121,121,121,121,120,121,121,122,121,120,119,121,120,121,120,121,121,121,121,120,120,121,120,121,121,121,121,121
121,120,120,121,121,121,122,122,121,121,121,122,121,121,122,123,120,121,121,122,122,121,120,118,121,122,121,121,121,121,122,121,119,121,121,122,121,122,120,119,121,121,122,122,122,121,122,121,120,121,121,122,121,121,122,118,120,121,121,122,121,121,122,122,120,121,121,122,122,121,121,120,121,121,120,122,121,122,120,121,120,122,121,122,122,122,122,120,121,122,121,122,120,120,123,119,120,121,120,121,121,121,124,121,120,120,120,121,121,121,122,119,119,120,120,122,121,121,122,122,120,121,121,122,122,121,119,119
120,121,121,122,121,121,120,120,121,122,121,121,121,121,119,121,120,121,122,122,122,121,122,121,121,122,121,122,120,120,123,119,121,122,122,121,120,121,123,121,120,121,120,122,122,121,121,119,120,121,121,121,121,121,121,121,120,121,121,122,121,120,122,120,120,122,121,122,122,121,122,119,121,121,121,122,121,121,122,122,120,122,121,122,121,122,121,120,120,122,122,123,121,121,123,121,121,121,120,121,121,120,120,120,120,120,121,122,121,121,122,118,120,122,121,122,121,122,121,120,121,122,121,122,122,122,123,121
120,121,121,121,121,121,123,121,120,121,121,122,121,122,120,119,121,120,120,121,121,121,120,120,120,121,121,121,122,122,121,120,121,122,121,121,121,121,121,120,121,122,121,122,121,120,119,119,120,121,120,121,121,121,123,121,120,121,121,122,121,120,121,120,121,121,121,122,121,122,121,120,121,121,120,121,121,121,122,120,121,122,120,121,121,121,122,120,121,122,121,122,121,121,123,121,120,121,121,122,122,122,120,122,119,120,120,121,121,121,123,119,120,120,120,121,121,121,123,120,120,121,121,121,122,121,120,120
121,122,121,121,120,120,119,119,120,121,121,121,121,121,123,119,121,121,120,122,121,121,121,120,121,122,121,121,121,121,121,119,120,121,121,121,121,121,122,121,120,122,121,121,121,121,121,120,119,121,121,122,121,122,119,121,121,121,120,121,121,121,124,121,121,121,120,122,121,121,121,121,120,121,121,122,122,121,119,118,120,121,120,122,121,121,125,121,119,121,121,122,121,121,120,119,119,120,120,122,122,121,121,120,120,121,121,122,122,121,123,120,121,122,121,122,121,121,123,120,120,121,121,122,121,120,121,119
121,122,121,121,121,120,121,122,120,120,120,122,121,121,119,119,121,122,121,121,120,121,123,120,121,122,121,122,120,120,120,120,120,121,121,122,121,121,121,121,120,121,121,122,122,121,122,121,121,122,122,122,122,122,123,122,120,121,121,122,120,121,121,121,120,121,120,121,121,121,123,119,121,121,121,121,121,121,123,120,121,122,121,122,121,120,119,120,120,121,121,122,121,120,120,123,121,122,121,121,121,121,121,119,120,121,120,122,121,121,121,121,120,122,121,122,122,121,121,120,121,121,121,122,122,121,122,120
121,122,121,122,121,120,122,120,121,121,121,122,121,121,121,121,120,121,121,122,121,121,123,119,120,120,121,122,122,121,122,120,120,121,120,121,121,121,123,121,121,121,121,121,121,121,121,122,121,121,120,121,121,121,122,121,121,122,121,121,121,121,122,121,120,122,122,123,121,121,123,121,120,121,121,122,120,120,122,119,121,122,122,122,121,120,119,120,121,122,122,121,121,120,121,121,121,122,121,122,121,121,121,121,121,122,121,122,120,121,119,118,120,121,122,122,122,121,121,120,120,121,120,122,122,121,123,120
120,122,121,122,122,121,120,119,120,121,120,122,121,122,122,120,120,121,121,122,121,121,121,120,121,121,120,121,121,121,122,121,121,121,121,122,121,121,120,118,120,121,121,121,120,121,122,120,120,121,121,122,121,120,122,119,120,122,121,122,122,120,122,121,121,121,121,122,121,122,121,121,121,121,121,122,122,121,123,120,120,121,121,122,121,121,122,119,120,121,121,122,122,122,122,120,120,121,121,122,121,121,118,119,120,121,121,122,121,122,121,119,121,122,120,121,121,121,123,123,120,120,120,122,121,121,122,120
121,122,121,122,121,120,120,122,120,122,121,122,121,121,119,119,120,121,121,122,121,120,120,120,120,121,121,122,121,120,122,118,121,122,121,122,121,122,122,120,120,121,121,122,121,122,123,121,121,122,121,123,122,122,122,121,121,122,122,122,120,121,121,119,121,122,120,121,121,120,121,120,121,121,121,122,121,120,121,119,119,121,121,121,121,121,122,121,120,121,121,122,121,121,120,122,121,122,121,122,121,122,121,119,120,120,120,121,121,120,122,120,120,121,121,122,122,122,120,122,121,121,121,122,121,121,123,121
121,122,120,121,120,121,119,121,120,121,121,121,122,121,121,119,121,122,121,121,121,121,121,120,121,122,121,121,121,121,123,121,120,120,119,120,121,121,124,120,120,120,120,121,121,121,122,120,120,121,121,122,121,121,123,120,120,121,120,122,120,121,119,120,121,122,122,122,121,121,123,119,120,121,121,122,122,122,121,120,120,122,121,122,121,121,121,120,120,122,121,122,122,120,124,120,120,122,121,122,122,122,122,118,120,121,121,122,120,120,120,121,119,121,121,122,121,122,119,120,120,121,121,122,121,122,122,120
121,122,121,122,122,122,123,123,121,122,122,122,120,120,121,121,120,122,122,122,121,121,121,119,120,121,121,122,121,120,120,122,121,122,120,121,121,121,121,122,121,122,120,121,120,121,119,119,119,121,121,121,121,121,120,118,120,120,120,121,121,121,122,120,120,121,120,122,121,121,122,121,120,122,122,122,122,122,119,120,121,120,120,121,121,121,123,119,122,122,120,121,121,121,121,121,120,121,121,122,121,122,120,120,120,121,121,122,122,121,120,119,122,122,121,121,121,120,123,121,120,121,121,122,121,121,120,119
120,121,121,122,121,121,118,120,120,121,120,122,121,121,119,120,120,120,120,122,121,121,120,121,120,121,121,122,121,121,122,121,120,121,120,122,121,120,121,119,121,121,121,122,122,120,120,119,121,122,121,122,121,120,118,120,121,122,121,121,121,121,122,121,121,122,121,122,121,120,121,121,120,121,121,122,121,122,121,120,119,120,120,122,122,121,122,120,122,121,120,121,121,121,124,120,119,120,121,121,121,122,122,121,120,121,120,121,120,121,121,120,122,122,120,121,122,121,122,119,121,121,121,121,121,121,119,121
120,121,120,121,121,121,122,120,120,121,120,121,121,121,124,118,120,121,121,122,121,120,120,120,121,123,122,122,121,121,119,120,121,122,122,121,120,120,121,121,120,121,120,122,121,121,123,119,120,121,121,122,121,122,120,121,120,122,121,122,121,121,121,120,121,121,121,121,120,121,122,121,120,121,121,122,121,121,123,119,121,122,121,121,119,120,121,120,120,120,120,121,121,121,119,119,120,120,121,122,121,121,121,120,121,122,121,122,122,121,118,119,120,121,121,122,121,121,123,120,120,121,121,122,121,121,125,120
121,122,121,121,120,120,120,121,120,121,121,122,122,121,120,121,120,119,119,121,121,122,120,120,120,122,121,123,122,121,123,121,122,123,122,122,122,122,122,120,121,121,120,121,121,122,123,120,120,121,121,122,121,121,120,120,119,120,121,121,122,121,119,119,121,122,121,121,120,120,120,120,121,122,120,121,121,122,121,122,120,122,121,122,122,121,122,121,121,121,120,122,121,120,122,121,121,122,121,121,121,121,121,121,120,120,119,121,121,122,123,122,121,122,122,121,120,120,121,120,120,121,121,122,121,121,124,120
121,122,122,121,120,121,122,120,120,121,121,122,121,121,120,121,120,120,120,122,121,121,121,120,120,121,120,121,122,121,122,120,120,122,121,122,121,121,119,121,121,122,122,123,122,122,120,121,120,120,120,121,121,121,121,120,120,121,121,122,121,122,119,119,120,121,120,121,121,121,121,120,121,121,121,122,122,121,123,122,120,122,121,122,120,121,122,122,121,122,121,121,121,121,121,119,119,120,120,122,122,122,121,121,121,122,121,121,121,120,121,120,121,122,122,123,122,121,121,121,120,121,121,122,121,120,122,120
121,122,121,122,121,120,120,119,120,122,121,122,120,119,120,119,122,122,122,122,121,121,121,120,120,123,121,121,120,120,122,121,121,121,121,121,121,121,122,120,120,120,120,121,121,121,121,121,121,122,121,122,121,120,122,121,120,121,121,122,122,121,119,119,121,122,122,122,120,120,122,121,120,122,121,121,120,121,121,121,119,121,121,122,121,121,123,122,121,122,122,122,121,121,121,123,120,121,121,122,121,121,120,119,120,121,120,122,121,122,122,121,121,122,122,122,120,120,122,119,122,122,121,121,121,121,120,121
120,121,121,122,121,119,121,120,119,120,121,122,122,120,121,119,121,123,121,121,121,121,121,120,120,121,122,122,121,121,120,119,120,121,120,121,121,121,121,121,121,122,122,121,121,120,121,121,120,121,120,122,121,121,123,122,121,120,120,121,121,121,123,119,121,122,121,122,122,121,121,122,120,122,121,122,120,120,122,120,120,121,121,122,121,121,121,118,121,121,121,122,121,121,118,122,120,122,121,122,121,120,122,119,119,120,121,122,121,121,122,119,121,122,121,121,120,121,122,120,121,122,121,122,120,120,120,119
121,121,120,121,121,121,122,119,121,122,122,121,120,121,121,121,121,121,120,122,121,121,120,123,121,121,120,121,121,119,120,120,121,121,121,121,121,121,119,120,120,120,121,122,122,122,120,119,121,122,121,121,121,121,121,121,121,122,122,121,121,121,122,120,120,121,120,122,121,120,122,121,121,122,121,121,120,121,122,119,120,121,120,122,121,121,118,119,121,122,121,122,120,121,123,124,122,122,121,121,120,121,121,121,120,122,121,123,122,121,126,120,121,122,120,121,121,121,120,121,119,121,121,122,121,121,120,119
121,121,120,122,121,121,121,120,121,122,120,121,120,122,122,121,121,123,122,122,122,121,123,119,121,121,121,122,121,122,122,120,121,121,120,121,121,121,122,122,120,121,121,122,121,119,120,121,118,122,122,123,122,120,107,121,131,121,121,121,121,128,120,121,118,120,122,123,121,119,120,121,119,121,120,121,120,122,117,114,115,119,120,121,120,116,119,128,96,116,118,120,118,108,107,111,150,127,125,125,127,131,101,131,106,121,121,122,120,114,82,123,135,125,122,122,122,120,123,117,109,117,120,122,120,88,142,118
132,129,128,130,137,183,151,131,130,121,120,121,116,84,87,125,103,119,119,124,131,131,108,109,139,129,126,128,134,119,106,125,118,125,122,119,123,132,141,124,141,123,124,124,120,112,106,136,62,111,114,112,105,110,84,90,118,108,110,113,114,106,107,125,116,125,131,129,127,207,170,131,115,121,117,115,101,102,141,114,128,125,122,125,129,127,138,138,131,131,134,131,128,87,185,151,101,109,110,106,80,114,96,90,137,129,121,121,142,143,105,128,142,131,124,91,125,76,17,118,106,116,127,127,136,147,229,119
110,110,102,76,108,114,99,112,123,121,122,124,134,126,133,105,106,116,99,42,91,135,101,86,117,117,115,147,100,48,107,148,148,131,131,114,114,132,104,100,110,118,115,117,127,127,101,106,124,122,112,152,197,229,134,97,99,121,143,131,120,54,181,116,123,118,115,129,176,203,75,111,121,117,113,106,107,133,166,148,112,121,116,104,115,82,100,82,90,125,128,131,142,120,205,132,177,120,126,135,145,141,147,182,124,125,120,118,92,177,183,145,116,133,131,179,121,68,110,121,101,110,117,126,147,203,161,92
135,117,126,118,108,110,135,115,114,128,117,81,98,141,58,103,132,126,119,90,146,106,43,114,110,123,128,198,170,116,151,86,113,122,121,134,108,105,120,120,148,121,119,114,124,123,59,146,106,117,114,127,117,148,122,117,118,124,137,121,154,105,129,134,93,119,121,121,130,166,118,120,155,114,105,77,114,103,127,126,115,121,114,77,96,58,96,119,118,116,118,123,131,157,98,117,109,123,102,98,117,52,105,107,130,123,132,144,155,98,121,123,129,128,133,143,151,128,78,115,110,116,125,117,164,108,148,110
113,116,113,105,118,123,123,111,125,129,125,121,122,140,96,132,148,122,136,130,110,111,154,138,103,123,130,131,133,69,50,105,98,116,115,121,120,97,166,115,134,124,115,118,115,139,91,130,109,124,130,117,105,91,121,99,138,124,125,121,113,142,124,149,111,116,121,173,156,126,126,119,133,136,143,131,140,131,162,134,107,121,117,128,142,150,108,106,129,122,115,132,110,81,126,140,110,121,118,149,148,187,137,113,118,124,125,151,134,133,131,129,146,123,108,76,84,112,131,118,103,121,113,142,141,107,117,123
136,119,121,122,110,56,82,132,107,127,110,141,118,112,168,126,125,121,103,132,90,102,92,131,127,126,0,113,131,163,132,141,108,116,0,123,113,91,120,110,128,124,0,119,112,209,85,128,100,118,0,111,103,127,145,111,145,126,51,109,92,106,111,101,112,130,82,131,101,138,158,158,143,117,118,113,121,100,102,123,114,122,136,158,158,139,163,123,114,117,133,60,92,118,89,111,98,116,142,133,143,91,97,106,137,118,112,106,102,122,92,137,130,125,115,97,138,114,178,113,119,130,126,171,149,101,129,130
109,104,139,107,106,165,150,119,119,124,129,107,105,90,132,121,127,129,118,128,140,155,118,116,124,111,95,117,101,94,118,113,109,116,102,114,111,176,146,117,143,134,129,106,112,80,131,154,64,116,130,129,85,49,112,80,168,117,103,91,101,143,175,137,101,118,124,84,100,101,106,95,112,116,102,146,127,113,162,125,121,121,125,112,123,164,85,127,121,122,120,91,115,111,105,90,102,122,105,125,106,107,148,134,141,113,107,106,131,128,112,135,106,120,87,123,188,76,108,109,113,122,126,109,123,116,153,100
131,122,104,125,115,117,130,124,64,111,106,124,141,82,87,108,183,122,101,107,98,146,142,131,89,123,131,121,133,89,137,102,142,115,115,105,107,144,139,153,107,121,118,114,131,113,88,105,110,131,120,224,170,85,105,133,135,119,104,99,95,187,127,113,121,125,136,160,127,88,131,130,124,122,106,105,115,140,124,149,119,119,131,152,110,98,129,115,121,110,114,63,54,93,55,122,117,134,106,144,169,197,190,116,136,121,129,122,106,108,136,142,110,108,89,100,99,110,87,103,102,127,106,126,143,139,95,89
132,121,130,114,109,117,142,124,127,118,145,130,114,130,117,117,114,128,136,118,126,156,112,121,116,122,109,130,125,128,133,99,102,114,135,123,97,126,82,139,129,116,112,116,157,138,125,94,119,128,124,112,134,124,125,124,108,118,141,113,104,96,81,98,141,119,113,99,102,93,125,158,110,120,129,113,137,237,149,122,115,124,111,193,187,143,94,109,111,120,108,113,92,123,123,112,96,119,113,118,104,101,187,128,171,123,129,137,138,170,116,159,110,120,112,102,101,61,120,112,106,121,114,118,98,95,83,97
117,119,105,100,148,106,149,115,123,121,120,107,101,103,129,151,122,124,99,120,123,145,111,109,116,119,119,102,109,106,68,116,111,126,132,121,113,97,89,111,120,113,121,110,129,168,110,104,121,125,112,158,126,109,158,123,129,126,136,117,121,156,126,130,137,115,116,120,103,88,124,118,103,119,109,120,129,144,163,111,134,120,126,124,119,82,163,122,128,125,119,124,127,103,162,149,121,124,129,144,149,208,108,121,114,122,134,128,120,68,100,101,113,123,118,120,130,124,135,141,149,116,144,117,119,150,119,143
115,123,131,120,109,100,140,141,103,117,125,122,117,116,146,107,124,115,133,65,72,168,143,129,113,121,97,100,127,124,115,116,126,123,125,115,131,85,115,157,126,123,137,104,107,139,159,141,111,120,114,114,114,162,137,117,115,120,136,118,122,110,82,101,135,122,126,117,107,105,117,148,118,126,142,155,125,148,143,134,129,108,125,117,126,84,121,112,104,118,116,132,123,130,115,103,114,124,106,105,111,129,114,128,114,123,110,141,114,87,117,110,123,114,112,140,121,91,129,115,99,112,129,134,116,183,78,113
140,132,120,131,117,54,79,112,126,123,123,150,129,106,125,132,112,120,111,76,123,127,106,91,140,122,108,133,115,81,80,156,113,124,140,105,113,167,130,105,116,117,127,116,113,117,124,125,124,123,132,144,148,117,120,122,134,124,133,114,118,143,171,137,124,124,112,125,122,115,142,120,111,116,133,107,115,131,135,138,135,123,145,93,108,127,115,109,115,122,114,112,139,116,139,121,110,123,105,79,116,116,100,93,134,117,115,114,107,116,86,123,96,113,111,105,128,144,65,137,118,120,112,134,118,109,101,99
114,118,126,104,104,120,113,125,114,122,129,114,117,109,72,72,105,127,117,134,120,199,169,152,148,118,109,117,123,102,135,126,107,119,137,122,120,117,126,117,104,118,150,133,120,115,121,116,124,127,130,127,98,142,119,106,117,115,126,144,127,99,154,116,126,126,139,194,188,165,64,106,128,121,130,139,124,118,110,132,115,121,103,122,114,90,145,123,116,118,94,101,119,80,93,118,109,121,131,74,115,136,148,116,150,116,128,126,116,128,198,152,131,124,94,120,133,167,90,118,120,134,97,119,126,153,191,135
104,102,117,135,121,115,113,112,122,131,146,130,154,125,113,120,104,125,126,116,102,126,102,93,138,118,127,114,113,136,126,117,133,120,124,125,113,112,141,171,105,124,96,138,132,131,138,114,147,114,104,118,109,102,143,127,121,121,115,141,143,116,139,114,116,122,107,127,121,159,156,127,112,117,113,112,99,97,135,127,127,125,101,97,112,164,139,120,132,122,117,110,109,131,97,155,111,111,122,136,135,111,106,118,124,126,150,71,85,126,137,116,129,124,135,130,151,84,142,141,121,123,116,117,125,183,143,106
110,125,99,111,114,116,114,129,134,119,104,107,101,196,155,121,108,116,137,117,105,99,130,106,133,126,112,149,151,130,142,144,106,121,135,103,112,121,103,108,123,116,132,85,87,138,115,117,111,120,97,135,133,97,151,123,128,121,94,124,138,130,113,102,122,126,123,139,129,123,128,121,134,123,144,111,121,101,132,129,123,119,149,123,118,181,184,157,108,124,142,138,126,112,99,105,126,122,129,97,109,125,182,161,127,120,112,103,113,119,80,102,125,125,111,116,129,114,140,126,119,124,137,112,123,230,121,107
120,120,90,139,113,109,135,138,127,124,101,130,122,164,153,146,114,120,94,111,114,106,135,116,120,117,131,91,112,134,131,119,127,123,139,112,119,125,148,154,112,114,141,115,108,113,86,96,124,129,121,136,131,122,148,122,112,127,144,154,125,80,131,109,121,116,103,102,107,96,78,95,132,123,109,105,129,188,173,164,102,114,119,123,121,102,107,109,154,128,109,132,106,111,186,123,112,121,112,117,123,97,41,97,116,123,137,132,114,112,144,106,118,124,114,116,122,115,125,114,109,110,102,151,135,95,104,105
117,123,115,150,107,136,172,126,113,124,101,118,122,84,49,112,129,127,102,99,105,110,112,116,126,130,102,213,186,138,151,162,101,111,113,109,118,120,78,63,116,119,129,82,114,96,139,133,123,116,131,110,111,131,90,131,121,129,122,122,120,119,112,110,121,111,137,110,121,59,80,107,116,118,109,119,134,151,87,114,121,130,125,135,154,120,99,105,116,120,129,141,118,165,116,112,113,131,110,115,129,109,137,134,128,114,125,90,110,167,136,148,114,123,131,206,176,171,136,115,119,120,132,107,102,94,107,128
115,127,128,155,170,112,55,112,118,112,129,104,92,138,115,108,126,128,136,172,150,114,114,117,135,119,131,102,128,124,155,124,143,129,108,138,123,149,160,196,96,125,133,99,91,112,104,73,135,125,121,113,131,182,150,112,120,103,117,103,104,102,53,109,114,125,113,82,105,140,119,114,109,118,119,143,119,86,100,80,106,123,117,83,104,119,57,115,132,126,114,140,118,157,136,124,109,118,116,104,103,95,116,113,115,114,128,65,81,67,109,127,118,122,118,191,195,159,91,93,100,108,145,92,79,69,61,97
138,127,125,123,114,112,132,129,133,129,107,137,121,128,131,134,124,121,110,104,105,129,137,134,112,111,98,115,116,134,87,110,126,125,138,86,131,118,167,139,109,119,122,120,103,105,111,116,144,118,143,179,119,101,76,115,125,127,108,121,129,168,128,120,117,122,99,109,108,106,129,125,102,123,111,145,160,146,130,94,145,123,136,117,115,124,133,148,113,114,97,142,119,133,120,88,106,121,114,107,115,124,97,92,132,123,112,143,105,107,148,146,126,124,128,118,151,132,171,122,127,122,110,113,106,109,135,131
121,119,138,136,147,92,109,114,111,118,159,72,82,111,87,116,124,130,126,151,145,185,157,135,130,122,137,101,116,98,95,141,121,121,112,102,112,87,146,124,125,119,112,133,126,123,108,117,123,117,128,121,108,125,93,117,98,114,98,149,183,100,134,106,150,129,124,96,96,87,125,162,115,123,135,143,140,139,128,101,108,115,140,120,113,76,55,81,122,125,121,75,102,111,142,125,125,119,119,132,114,125,157,104,107,116,146,106,105,87,101,95,124,129,107,108,120,92,152,128,108,113,102,143,142,126,108,117
132,124,111,98,139,157,96,120,109,119,116,120,123,142,126,117,127,120,116,124,156,125,138,122,130,126,130,116,125,110,117,137,111,116,134,109,104,98,110,113,109,116,131,152,146,73,165,132,130,122,108,101,101,92,105,124,115,121,100,122,114,152,147,115,117,120,108,140,113,108,137,116,120,122,128,157,125,109,150,121,121,117,126,115,118,149,65,110,126,122,116,126,134,70,120,104,119,120,122,140,127,163,106,124,109,121,117,113,104,109,113,125,115,112,143,101,99,95,103,118,132,121,98,122,115,153,136,116
123,122,134,72,93,111,143,146,120,127,142,105,106,129,129,128,129,115,115,111,110,133,93,131,108,115,114,123,126,157,127,115,114,121,129,95,94,107,141,121,129,126,128,124,131,109,85,103,108,126,113,109,99,104,113,111,118,111,111,142,166,99,99,119,122,127,145,32,77,110,122,107,113,122,132,129,113,88,116,116,127,125,112,112,110,142,149,121,114,122,89,109,126,133,129,119,109,119,113,110,118,124,174,107,142,123,132,134,135,102,95,157,123,116,149,110,87,92,134,129,113,129,129,122,142,177,131,116
137,129,124,121,114,119,149,149,107,115,103,172,148,97,109,113,128,120,127,110,127,132,104,121,121,129,104,180,125,98,158,128,111,123,107,111,127,162,135,120,132,123,102,124,110,129,144,133,112,114,125,116,122,72,91,92,118,122,122,150,147,114,110,126,121,124,136,125,149,116,120,136,123,126,125,122,136,153,104,109,127,114,88,101,109,116,105,135,100,117,119,127,113,108,95,115,116,128,124,153,163,110,123,112,140,113,128,115,98,104,99,134,115,128,116,120,148,137,114,106,114,122,115,181,163,138,146,142
128,112,105,67,93,132,93,117,114,122,112,101,88,85,90,115,115,122,106,110,117,83,103,120,142,133,126,112,116,131,153,132,116,113,130,106,125,122,114,113,111,116,133,142,158,112,127,132,121,124,133,145,133,121,95,115,137,121,97,116,105,73,117,131,139,130,107,103,118,98,72,123,113,122,133,144,116,125,141,141,115,113,137,117,116,119,131,120,118,128,134,114,146,176,124,88,107,118,140,127,130,128,95,97,122,132,152,111,113,96,131,150,148,126,131,125,108,127,187,166,108,109,118,119,135,90,92,111
118,124,107,120,116,96,127,118,126,127,119,112,126,96,131,140,123,121,116,135,112,127,117,105,109,110,142,110,119,120,118,119,123,123,130,91,89,92,99,134,117,120,123,132,119,103,146,124,117,124,103,167,156,123,107,115,112,118,104,117,128,98,109,106,121,127,113,111,125,174,110,87,118,125,133,124,114,125,142,130,125,114,113,116,115,129,148,102,121,133,111,156,138,119,82,111,106,119,123,112,105,115,160,137,139,119,133,120,118,90,100,141,119,123,114,116,127,183,126,95,111,116,119,156,127,97,95,109
136,122,128,137,105,107,97,153,117,120,129,111,112,110,125,112,127,123,107,84,98,132,126,121,116,120,139,121,110,77,118,117,121,120,120,117,118,180,110,128,118,120,126,122,137,99,140,111,123,125,106,97,69,93,83,98,111,105,76,155,151,114,155,114,117,124,123,105,115,147,132,144,116,125,156,139,132,94,125,105,122,119,126,121,122,122,126,116,144,125,130,120,120,119,126,177,108,130,120,119,123,107,96,89,115,102,101,125,115,79,86,120,124,121,114,108,99,105,127,106,117,128,110,207,185,134,126,110
123,121,100,93,117,113,83,125,117,124,116,122,121,137,124,105,139,125,109,97,106,123,155,161,118,122,130,144,105,118,129,114,120,119,141,105,108,124,135,135,112,115,136,135,134,124,90,78,122,120,136,99,136,114,121,127,116,125,127,120,119,107,108,132,116,126,125,119,125,153,131,110,111,120,125,132,125,100,115,109,135,120,128,110,108,117,106,119,115,115,114,133,102,90,123,119,134,119,108,111,133,129,125,121,110,119,120,115,124,94,111,113,121,124,116,126,175,134,108,112,126,127,129,102,86,133,136,133
127,115,114,153,148,131,109,133,106,121,134,134,108,107,86,124,116,123,113,97,142,98,104,105,126,127,126,106,112,100,86,119,110,118,124,108,85,90,113,114,136,125,133,120,125,126,138,124,113,117,115,117,114,107,51,113,133,114,89,131,141,117,144,123,118,129,138,104,106,117,152,146,99,119,139,113,115,105,82,90,119,119,122,131,131,99,148,124,128,120,100,122,122,91,124,137,115,127,119,130,118,85,66,91,111,116,135,128,100,169,126,118,129,115,111,107,105,77,116,102,127,131,121,114,110,113,65,121
120,126,119,171,115,186,151,127,108,115,118,97,102,79,59,98,117,117,120,125,130,122,137,107,129,124,105,139,129,104,147,123,118,123,101,106,107,78,161,112,119,128,124,131,164,242,223,136,118,121,126,125,92,86,144,138,116,125,118,144,116,100,91,105,133,111,134,117,107,76,109,120,116,122,119,117,118,119,130,138,112,123,105,74,99,119,75,107,123,126,119,141,126,137,148,143,120,126,109,146,115,79,111,106,92,111,126,104,110,108,115,100,143,114,108,108,115,109,113,136,149,129,115,128,124,94,138,130
105,118,103,155,109,57,123,104,114,118,111,109,119,112,117,104,130,124,112,132,105,112,178,134,125,125,135,130,130,112,22,94,126,121,136,109,115,119,161,149,117,120,143,140,109,163,139,115,138,125,97,122,125,135,189,133,126,123,90,96,85,105,129,131,110,123,108,147,105,86,78,106,135,120,132,98,96,114,129,130,107,115,158,109,104,124,108,113,127,122,133,119,113,101,126,126,115,123,122,127,156,179,207,130,139,128,123,116,137,118,130,124,128,124,118,176,139,105,129,134,110,123,102,186,144,96,109,103
122,118,129,114,106,165,133,132,103,122,122,109,112,114,120,103,130,122,97,109,140,115,176,127,132,119,111,105,97,130,115,140,107,119,102,107,98,65,139,125,126,122,150,142,164,130,65,119,106,119,132,120,112,98,113,112,142,120,98,124,115,89,116,129,91,118,133,139,145,239,159,113,139,127,122,125,117,123,122,139,115,122,124,131,99,106,142,129,121,119,113,137,119,128,132,139,104,123,104,127,129,106,131,121,127,111,129,101,114,121,101,101,111,117,139,108,80,91,122,103,123,128,139,139,104,138,107,123
99,126,126,105,102,111,114,89,139,115,113,116,83,111,135,153,106,115,118,113,126,149,145,111,117,126,118,173,127,134,131,125,132,123,120,151,145,156,134,130,122,125,129,105,102,129,138,103,141,126,112,139,138,126,79,149,111,121,101,118,118,104,124,96,132,122,109,131,117,88,131,149,125,119,138,114,135,107,94,115,114,109,125,121,123,135,113,122,121,133,115,135,161,74,121,101,112,113,154,91,115,163,106,115,133,122,127,128,154,154,117,132,110,122,149,151,120,82,113,106,137,118,119,140,126,111,125,139
110,120,84,148,160,112,67,77,134,121,93,111,105,132,148,126,127,133,114,111,118,113,83,117,106,111,115,166,140,91,145,115,121,114,114,114,105,105,135,125,109,127,141,121,125,125,109,108,117,116,120,109,114,138,118,122,120,118,104,117,92,61,129,142,121,130,132,153,117,139,120,113,110,118,124,113,129,147,121,138,128,119,110,154,138,73,110,133,128,125,129,155,164,134,124,114,116,123,130,108,97,102,103,136,132,117,144,117,99,188,179,131,103,117,130,97,102,124,126,118,130,123,106,132,128,124,127,97
106,121,105,122,127,109,120,109,138,115,119,114,103,124,143,150,124,122,98,81,123,128,167,143,102,113,99,92,87,59,112,95,126,122,120,123,140,126,121,129,129,123,104,97,107,101,86,114,130,123,129,123,111,135,180,156,118,119,116,118,136,174,103,128,119,118,115,99,104,117,70,136,110,115,125,109,102,128,153,114,134,130,124,78,100,217,125,104,115,115,119,111,122,88,126,133,125,127,116,135,135,121,139,140,115,116,110,102,107,67,119,105,107,115,107,127,126,157,209,139,149,135,85,128,107,76,114,147
107,118,87,76,117,104,132,78,131,114,116,101,121,100,119,118,117,126,157,131,136,104,93,123,116,119,134,82,102,130,110,110,113,123,130,125,100,48,112,110,126,122,117,129,136,241,136,130,114,119,119,89,108,112,105,98,136,131,115,69,97,110,113,106,114,122,125,164,144,137,136,121,114,121,138,122,107,125,56,112,148,125,142,106,100,127,116,127,106,114,110,98,123,76,116,114,129,129,116,101,114,159,132,117,121,119,133,114,132,116,145,117,104,116,137,114,117,123,82,107,129,124,116,90,108,134,132,135
112,119,130,118,119,123,98,102,111,105,115,118,134,99,101,76,118,132,119,128,136,111,129,113,129,122,105,131,137,85,80,119,106,122,134,125,116,113,105,115,127,125,109,177,150,108,134,135,115,116,144,109,124,121,83,107,111,118,115,113,105,130,103,115,130,123,131,100,129,122,133,127,120,127,125,147,137,111,125,116,112,120,103,148,143,163,139,124,142,125,109,118,119,114,124,151,106,117,118,144,150,96,119,95,111,129,109,126,118,111,86,98,122,120,127,123,129,100,167,119,119,120,113,120,110,114,101,122
105,116,112,82,127,112,58,71,121,129,153,165,111,161,42,135,132,118,100,112,105,100,121,108,119,119,123,130,140,156,124,132,109,122,140,117,125,137,107,117,127,130,114,126,146,105,133,129,119,113,127,141,147,112,121,109,120,127,120,121,134,108,128,106,127,129,110,124,92,127,139,125,111,120,114,142,133,241,127,94,111,116,87,182,152,88,50,113,116,120,91,93,116,96,123,117,121,130,120,147,122,215,94,115,128,112,137,81,94,128,139,136,130,121,137,136,130,126,69,113,116,121,131,118,98,114,125,122
112,118,112,113,130,164,106,125,124,124,149,177,126,102,119,115,123,122,117,112,128,179,103,100,120,122,85,103,113,116,128,111,112,122,113,118,125,110,118,138,132,118,121,130,135,128,147,110,112,118,111,114,94,86,104,98,135,127,110,114,97,87,121,136,114,126,97,116,112,109,140,84,106,125,131,146,111,104,138,120,129,119,135,109,105,106,117,127,104,115,149,114,105,130,119,111,136,115,108,115,110,123,139,157,137,133,123,146,123,96,160,141,103,109,104,111,143,130,123,114,91,112,93,168,130,104,110,94
154,135,133,108,86,121,151,120,110,118,122,109,104,103,117,126,126,126,125,114,122,178,140,104,116,119,129,123,120,84,122,111,147,126,115,118,123,126,142,163,121,121,104,82,68,107,59,94,117,119,145,133,79,122,133,111,115,120,135,130,142,156,120,125,108,119,122,105,106,106,122,107,132,129,117,133,157,56,125,135,132,128,132,93,122,133,157,129,121,127,121,154,83,57,105,122,116,118,110,121,143,162,171,122,114,115,108,119,113,72,146,113,120,125,155,112,102,135,23,133,165,136,117,144,158,178,189,165
124,116,121,121,125,158,123,138,99,115,139,126,107,95,119,74,106,119,116,105,118,116,120,121,122,125,93,126,110,120,127,137,119,127,123,120,123,117,111,142,119,118,134,121,115,139,119,117,112,118,116,122,130,131,127,116,118,126,113,99,120,119,96,119,124,127,129,144,133,120,116,132,128,119,138,80,99,117,219,134,137,127,93,120,114,117,126,136,107,124,110,126,137,229,141,119,115,116,102,110,111,73,100,119,131,126,138,105,126,132,115,104,129,130,120,144,144,77,118,128,117,117,132,109,85,107,119,103
113,116,124,101,124,182,114,123,121,119,145,129,120,129,88,107,117,118,111,131,118,116,140,119,121,127,113,183,136,153,109,102,126,121,121,124,124,119,185,148,121,125,107,119,132,119,89,114,120,114,100,116,108,98,123,129,108,120,117,107,114,102,121,121,130,122,128,131,142,91,91,128,128,123,118,140,122,109,113,109,110,121,129,111,104,98,124,115,134,125,129,130,109,121,139,169,123,126,113,115,119,127,126,117,103,117,92,173,143,125,112,119,130,122,127,116,110,95,85,120,111,119,97,114,129,194,165,134
124,126,115,126,113,127,177,122,109,123,133,147,98,125,178,126,132,120,135,121,102,77,113,144,116,126,109,187,155,131,150,96,118,117,125,82,90,106,124,134,117,117,148,105,110,186,120,136,133,131,143,103,111,146,180,142,115,117,116,106,116,109,129,116,118,123,123,128,131,130,109,125,132,121,126,109,101,24,165,168,153,128,112,140,135,158,115,128,124,120,97,79,80,105,107,116,103,109,118,111,113,77,116,107,104,119,129,121,122,158,129,112,126,126,111,87,71,78,129,134,132,119,117,104,103,114,111,128
104,121,139,136,111,99,128,114,130,127,129,120,117,116,95,119,109,123,113,163,159,123,130,116,149,126,84,122,120,133,152,154,104,114,91,111,102,110,113,90,121,122,116,112,101,140,143,120,132,121,121,125,120,87,126,131,130,119,89,127,117,118,147,103,131,121,125,125,111,126,154,145,99,122,145,108,66,94,57,100,130,117,135,99,99,125,132,133,136,120,112,115,99,127,136,124,124,125,116,118,121,158,122,136,109,118,123,141,160,112,130,110,116,123,107,130,111,106,135,115,139,124,121,164,119,124,127,137
107,115,108,96,80,111,95,98,95,118,138,133,137,109,116,104,151,120,84,116,115,91,159,185,103,118,100,138,116,87,93,91,105,114,116,74,101,85,84,109,123,125,132,112,124,88,78,135,109,116,115,109,124,164,122,123,119,116,118,131,104,113,99,92,124,118,117,76,96,34,27,139,104,127,90,125,132,151,109,100,107,125,110,105,99,157,101,110,123,120,98,133,109,54,140,139,139,112,112,115,94,139,170,138,93,122,139,121,131,124,72,79,141,122,122,121,124,101,124,141,124,130,119,126,126,233,157,130
119,116,153,134,144,163,147,135,122,120,133,102,120,113,128,113,97,113,114,127,96,70,105,101,141,129,118,108,108,105,118,117,128,122,91,154,154,104,113,144,100,119,118,125,105,105,123,104,117,124,124,129,123,138,129,126,135,129,104,102,143,229,154,118,111,120,135,114,98,82,27,117,123,133,123,110,108,116,130,122,138,114,117,119,126,149,143,131,127,126,86,189,163,86,73,111,107,122,89,102,139,202,207,115,123,127,135,136,134,107,118,127,111,116,122,111,118,151,118,103,113,116,124,106,106,109,157,140
125,127,128,121,122,111,105,125,120,123,141,139,114,157,107,102,121,121,115,120,115,121,144,124,101,122,113,117,117,134,94,134,132,120,97,131,120,83,94,87,119,118,133,109,117,113,131,124,116,119,149,121,124,127,74,132,114,124,130,125,95,70,122,108,126,121,113,145,148,134,94,125,118,114,114,128,122,199,145,135,132,132,77,179,135,67,139,134,117,123,110,118,132,151,68,152,146,123,120,116,82,133,113,102,108,117,124,113,110,101,108,111,115,119,103,118,110,99,77,73,153,129,107,108,128,129,136,191
99,118,120,104,92,87,106,99,128,112,119,125,119,122,108,113,138,132,128,105,79,113,143,139,109,121,130,112,99,74,85,115,131,124,115,139,126,150,152,124,125,115,146,109,106,104,123,141,104,120,130,128,137,116,91,93,139,122,140,128,149,95,124,150,111,117,133,152,138,127,116,107,119,122,109,146,138,92,109,105,102,123,121,105,92,129,182,133,152,118,79,107,119,131,151,130,116,133,97,154,152,123,145,119,123,112,119,89,110,110,130,125,105,116,116,118,123,96,89,88,112,131,106,120,129,152,163,134
136,132,122,118,110,148,77,104,111,109,122,119,112,55,128,127,119,127,121,160,158,145,149,129,117,121,107,129,122,141,109,113,113,117,116,105,121,113,138,124,129,123,113,128,145,151,87,141,124,120,134,133,128,153,136,118,124,121,151,120,150,135,139,131,115,121,129,126,123,107,110,108,101,115,111,133,123,83,89,91,133,133,110,140,136,110,122,141,102,109,129,127,128,132,143,100,144,123,131,83,91,163,100,172,118,118,113,126,116,144,128,97,130,117,130,115,117,144,127,130,108,123,114,130,124,127,164,94
140,127,122,130,120,119,122,175,104,120,115,130,150,109,120,95,130,121,123,130,140,134,142,133,120,121,129,141,119,112,131,107,128,121,106,162,187,132,175,151,115,120,113,115,119,109,137,98,99,120,144,127,136,89,107,99,135,114,123,77,91,81,121,126,116,118,119,121,125,168,140,111,106,120,134,115,123,80,101,110,114,116,130,111,137,134,156,118,152,125,97,193,167,131,116,146,106,118,119,111,112,115,120,97,123,116,111,106,98,34,135,123,135,129,108,156,172,171,63,122,124,120,114,137,136,139,122,120
112,120,117,121,111,75,65,135,133,121,119,118,113,127,141,117,112,118,120,111,115,131,102,122,118,123,119,118,119,104,126,107,131,126,135,123,111,128,150,143,131,118,132,135,118,65,76,152,124,123,129,142,122,110,170,122,103,131,112,117,124,174,159,108,132,117,118,103,109,147,141,135,128,123,116,124,109,101,121,128,107,122,119,103,108,113,117,116,122,119,143,108,91,80,81,113,128,125,130,120,144,183,129,110,109,117,122,117,120,106,119,113,121,127,126,131,113,107,138,119,125,119,121,80,102,88,133,129
132,122,122,153,128,142,135,135,108,125,129,119,114,138,65,98,111,118,137,134,128,117,149,128,113,122,102,90,102,115,136,96,132,121,125,112,81,104,133,167,163,128,132,123,129,128,132,126,103,124,107,114,113,110,116,115,121,112,97,127,115,145,125,116,122,125,136,132,139,122,149,126,127,121,130,131,114,105,129,125,100,114,117,116,130,122,98,120,150,126,127,111,124,136,117,143,115,119,123,117,128,79,112,126,128,123,117,134,152,95,211,141,125,124,92,134,88,106,107,101,125,123,102,122,177,127,129,132
105,117,118,132,134,108,119,96,129,119,114,106,98,66,97,131,119,122,127,122,119,152,131,104,122,121,130,113,108,102,122,139,116,118,132,139,148,55,99,115,127,129,127,108,105,104,96,129,112,117,136,132,122,116,96,93,123,120,140,121,123,109,122,136,105,122,121,119,115,110,112,104,131,121,124,120,133,152,94,129,123,119,110,121,146,102,128,102,116,122,96,123,114,138,115,136,121,120,148,123,111,106,117,113,109,119,144,120,130,117,119,108,121,123,135,119,117,150,137,126,131,125,105,116,124,99,101,118
110,122,112,137,124,104,124,106,124,121,141,121,126,187,94,127,124,124,133,120,129,122,140,96,120,124,130,104,96,95,120,142,93,119,132,119,96,107,72,72,149,122,150,117,122,116,143,159,118,123,121,182,155,103,102,95,104,115,135,106,146,123,120,102,130,125,164,109,121,134,138,139,129,125,123,108,95,136,139,125,102,115,113,111,131,105,141,81,131,125,124,132,122,140,145,133,138,128,100,129,118,90,94,154,102,112,111,114,145,172,117,93,102,123,116,104,110,97,131,107,123,115,105,119,108,64,51,103
129,128,107,117,105,116,137,121,104,120,118,140,140,114,98,114,122,122,127,126,108,121,132,102,149,123,117,109,115,127,134,151,104,121,104,141,134,114,135,117,95,109,117,95,96,121,118,79,131,127,91,104,133,102,122,124,121,121,115,119,104,150,124,120,109,118,131,110,118,104,100,106,121,119,122,127,86,89,122,121,123,125,98,128,137,84,124,116,118,124,107,127,118,126,152,145,123,121,128,127,131,129,146,121,107,115,124,71,92,106,82,104,117,121,142,134,132,167,140,113,136,126,121,113,133,143,138,131
109,116,134,93,108,109,84,111,128,122,110,128,156,118,147,148,114,119,103,96,123,138,134,114,122,116,122,129,129,147,133,113,115,127,107,109,124,121,147,130,123,116,110,137,108,117,122,146,137,126,116,94,96,85,146,124,96,113,117,127,117,228,125,102,131,117,113,82,104,99,89,110,109,126,124,95,117,125,110,83,117,118,124,114,118,107,120,122,118,122,117,123,130,128,96,115,123,128,118,185,157,199,149,145,113,116,120,172,120,81,125,114,148,128,120,97,102,89,94,126,105,116,120,135,122,97,82,110
132,125,121,118,110,187,163,151,112,116,121,105,109,115,103,110,124,134,120,133,131,169,105,109,109,116,121,120,128,130,124,133,124,122,121,104,112,152,110,138,141,127,120,146,141,106,145,127,89,113,120,139,133,82,119,100,131,122,120,102,109,206,157,118,104,119,120,89,90,113,108,119,114,120,120,106,130,98,105,100,107,120,120,105,119,136,150,100,153,130,120,131,160,215,201,150,118,120,121,130,154,103,135,132,115,118,120,101,104,104,136,92,117,124,130,137,118,102,97,103,135,138,120,157,128,111,133,132
77,100,120,112,102,91,118,108,144,123,119,89,99,129,142,146,134,130,121,142,124,118,143,119,105,122,121,145,115,152,149,120,107,111,121,108,102,88,138,106,110,116,121,114,112,118,94,99,129,130,120,122,113,189,174,117,114,119,120,121,136,121,117,94,106,126,121,123,117,105,121,94,116,121,121,145,151,124,154,131,138,122,121,156,118,52,148,128,112,123,121,122,111,109,102,86,124,119,121,149,148,111,131,149,128,122,121,112,120,112,124,114,115,125,121,133,185,146,105,119,139,127,121,144,119,78,164,145
109,122,121,115,124,183,156,123,140,124,147,109,132,172,142,116,118,112,163,132,123,104,106,115,115,129,119,119,122,113,120,141,135,124,102,123,107,94,149,133,117,123,100,119,99,109,131,116,103,107,132,141,139,123,119,127,140,132,108,170,173,143,112,124,116,118,114,139,126,116,142,143,106,124,117,118,126,158,124,112,126,123,119,108,121,122,148,129,129,111,120,119,100,107,59,105,110,124,120,169,109,120,106,121,145,132,120,141,184,134,167,167,116,120,122,106,115,118,103,94,107,116,120,124,118,110,106,114
141,126,120,121,125,116,115,135,108,112,121,114,123,141,134,110,126,126,120,120,114,127,127,129,101,115,120,137,138,133,128,104,130,119,120,140,130,117,131,134,116,126,121,106,97,115,101,113,110,120,121,100,141,155,115,100,123,125,121,138,142,106,136,122,76,110,121,107,119,122,122,99,177,129,120,123,145,171,95,148,109,122,121,83,98,110,143,116,108,117,120,117,149,116,125,84,117,121,121,115,108,114,131,149,114,124,121,129,130,139,100,109,134,123,120,143,131,102,100,130,107,114,120,142,130,93,79,120
137,122,121,96,119,127,147,124,107,124,120,199,156,105,137,106,117,120,121,136,166,155,106,117,116,116,120,111,107,126,167,117,122,119,120,107,107,124,120,118,119,119,121,78,95,99,105,109,121,129,121,165,150,123,108,94,107,112,121,95,90,48,151,116,134,122,121,128,135,151,120,119,118,119,120,113,112,95,124,113,113,119,121,125,121,80,94,92,135,125,121,120,128,215,159,153,100,123,121,143,147,98,30,75,112,120,122,114,113,129,163,106,119,120,121,115,120,103,130,124,132,119,121,148,172,140,124,125
115,127,120,112,109,115,121,103,112,115,120,121,140,141,86,97,139,121,121,107,112,129,133,142,110,125,120,162,156,97,77,93,126,125,121,104,107,106,128,117,117,118,121,134,118,110,136,114,115,118,122,94,102,131,121,116,122,126,121,146,137,124,149,127,134,125,121,158,135,119,115,117,127,119,121,121,117,142,146,126,115,122,120,116,122,123,97,109,126,124,121,117,121,123,133,114,118,117,121,138,122,124,123,131,127,122,120,126,133,121,117,117,133,126,120,122,126,125,125,155,110,120,122,120,122,116,111,102
108,119,121,120,120,120,124,115,129,123,121,119,114,112,121,126,108,115,121,123,125,119,101,117,119,122,121,137,129,128,117,119,104,116,121,129,81,117,120,124,122,126,121,136,147,119,64,108,109,119,121,123,114,122,126,123,117,114,121,137,120,123,110,107,122,126,122,116,117,102,138,125,155,127,121,120,122,152,156,152,108,123,121,150,145,117,140,114,122,117,121,104,109,130,120,135,116,118,120,106,94,98,128,122,130,129,120,135,136,109,65,90,104,114,120,122,116,115,111,117,117,116,121,96,99,123,112,111
110,119,121,121,126,130,138,130,133,124,121,120,135,129,108,109,140,129,121,125,145,166,224,189,108,119,121,120,107,107,124,111,125,129,120,101,121,112,124,129,89,114,121,140,147,113,131,97,169,126,121,132,139,199,112,153,109,123,121,114,112,124,124,94,115,120,121,102,103,113,117,112,116,119,121,129,118,111,123,117,122,122,121,113,96,103,132,132,132,129,120,127,144,163,103,121,111,119,121,98,82,107,146,112,119,126,120,112,113,118,125,126,103,108,122,94,109,140,109,106,132,119,121,115,101,93,67,135
105,121,120,143,124,93,97,84,134,125,120,120,119,129,130,146,118,115,121,117,107,106,123,113,122,116,121,123,114,145,131,116,131,130,121,144,120,137,157,131,125,123,120,123,125,119,120,142,119,114,121,101,106,119,74,109,124,126,121,136,121,112,216,151,124,122,121,110,116,90,112,112,119,119,120,103,108,117,123,123,115,119,121,113,125,120,70,106,118,124,120,113,109,93,51,118,112,116,121,99,116,120,117,103,134,125,121,119,119,103,136,133,112,120,121,123,109,78,131,114,131,130,121,128,114,164,121,120
116,118,121,125,115,74,7,97,108,126,121,94,113,95,116,93,126,117,120,122,128,119,94,116,115,118,121,121,144,128,145,158,130,124,122,123,131,240,154,103,107,123,120,120,117,105,104,101,110,120,120,152,122,119,132,112,132,124,121,90,93,109,135,135,140,124,120,127,147,160,107,141,107,120,122,97,110,121,119,121,118,123,121,162,120,56,106,117,119,128,120,116,132,120,116,116,111,108,120,103,109,138,106,116,132,121,121,183,152,102,74,122,118,122,120,118,123,99,55,121,112,124,121,114,103,92,148,134
146,119,121,114,132,149,125,115,109,120,121,132,108,101,122,148,123,119,121,113,114,112,134,144,119,123,121,120,121,140,157,123,126,123,121,132,117,126,111,119,107,120,120,155,125,105,56,90,128,125,121,173,130,129,153,135,133,125,121,121,135,146,128,149,105,120,120,105,113,88,110,117,115,123,121,145,108,133,138,107,132,120,121,151,135,103,156,135,116,127,121,159,129,145,85,101,109,130,121,104,107,153,156,119,136,113,120,115,116,177,125,146,101,120,121,128,120,122,104,105,133,123,121,104,118,110,168,139
126,123,120,126,116,109,157,127,123,128,121,130,123,115,156,114,99,109,121,107,112,30,55,90,123,118,121,117,111,118,133,123,123,132,121,122,126,98,133,147,113,111,120,127,115,106,102,84,115,120,121,124,119,140,125,129,129,123,121,101,125,110,100,120,118,124,120,122,150,129,183,132,113,126,121,161,109,98,129,101,146,132,120,150,144,123,165,137,108,111,121,57,116,134,102,127,112,115,121,109,95,99,108,116,137,131,120,122,129,126,90,118,110,113,121,112,119,125,155,112,104,117,121,115,111,124,77,104
131,122,121,96,119,138,167,112,114,124,121,124,129,163,117,115,127,122,121,127,108,71,90,138,105,110,121,94,119,142,45,108,127,129,121,83,133,210,135,124,111,111,121,100,114,55,45,113,120,120,121,103,96,93,137,121,121,126,121,143,137,127,81,113,117,120,121,103,114,103,118,122,116,128,120,133,128,128,108,95,110,104,121,118,120,131,99,110,140,129,121,136,143,150,116,130,121,125,121,122,124,101,97,146,120,118,120,119,91,98,127,108,128,115,122,115,115,123,150,129,149,129,121,111,97,117,207,151
105,119,120,135,121,120,127,109,119,128,120,113,119,102,109,105,107,116,121,102,111,163,142,124,133,122,121,117,143,142,116,126,119,124,121,137,118,101,122,98,111,112,121,118,110,102,113,151,125,124,121,117,92,121,141,110,116,120,122,138,130,127,57,107,122,124,120,118,127,159,128,140,109,120,120,150,146,49,100,87,126,122,121,158,120,115,102,116,116,121,121,120,108,85,169,129,109,119,120,145,103,104,106,116,145,122,121,130,153,241,228,133,132,126,121,124,117,99,131,132,107,117,121,116,114,85,58,99
115,118,122,99,106,71,143,112,110,118,121,115,114,136,58,126,136,124,121,115,129,178,132,119,126,125,121,129,124,117,136,120,106,117,120,133,106,64,118,113,118,123,121,153,141,202,197,142,128,121,121,96,120,117,111,118,118,123,121,117,127,131,137,127,115,119,121,135,112,90,119,110,124,119,121,135,104,143,193,146,127,126,120,132,119,110,100,148,112,123,121,113,125,115,105,69,120,118,120,128,149,114,119,113,126,128,121,128,136,195,158,137,115,119,120,124,121,114,163,130,121,118,121,129,118,106,101,110
116,120,121,93,114,102,104,110,122,121,120,128,125,154,150,128,128,126,121,134,127,105,117,139,107,119,121,114,116,117,85,99,123,118,121,130,137,115,149,121,133,127,121,157,121,118,117,107,116,119,122,129,118,110,97,108,120,122,121,76,99,118,118,126,121,127,121,144,120,121,111,114,118,119,121,115,113,121,107,122,113,121,121,112,122,120,132,134,139,121,121,113,110,123,142,128,123,120,121,113,114,130,108,119,111,116,121,115,109,113,127,138,110,118,120,119,119,118,78,95,116,120,121,117,114,113,139,114
115,117,121,114,122,142,117,104,120,126,120,147,144,125,66,138,122,116,121,104,112,149,104,125,117,124,121,135,124,108,112,70,119,125,121,98,103,154,150,135,117,121,121,121,114,109,107,99,135,122,120,114,124,181,152,157,113,123,121,138,123,136,93,103,117,121,121,114,115,106,116,108,107,119,120,136,127,121,132,133,153,139,121,133,133,212,158,145,120,117,121,125,120,110,124,81,112,123,121,146,127,113,126,120,95,122,121,108,122,108,120,112,141,119,120,117,114,126,95,108,115,122,121,110,108,131,158,109
120,123,120,111,131,107,130,123,124,129,121,121,114,118,172,159,124,128,120,161,139,137,73,108,118,115,120,130,143,109,118,101,119,127,120,122,122,92,137,138,129,117,121,119,116,124,143,120,119,120,121,109,124,108,55,123,122,123,120,124,125,122,119,133,114,115,121,68,87,100,122,101,108,128,120,118,120,131,117,127,136,111,121,109,120,132,145,130,103,121,121,114,108,92,50,89,136,126,120,150,141,119,153,189,124,124,121,129,145,124,101,99,119,129,121,126,134,116,104,121,121,116,120,128,124,98,145,134
121,125,120,104,115,109,114,119,121,113,121,105,112,90,145,133,113,121,121,123,118,109,93,104,140,126,121,133,109,95,34,120,112,119,121,110,114,114,124,110,117,121,121,119,131,102,128,105,126,130,121,157,129,123,126,129,115,118,121,115,136,130,122,125,118,122,121,125,132,86,106,101,125,119,121,130,118,124,103,116,116,118,121,111,125,115,136,126,127,125,121,137,118,121,94,145,112,114,121,109,105,88,144,132,114,119,120,127,130,114,113,108,131,127,121,113,120,98,132,132,122,128,121,128,131,129,137,119
116,124,121,110,104,122,113,133,131,122,121,118,120,121,126,125,119,120,121,116,118,90,119,115,120,122,120,132,121,116,122,121,124,126,121,130,104,112,119,125,119,116,120,96,96,126,132,122,120,123,121,120,119,119,134,125,110,117,121,119,125,111,97,91,131,115,121,119,124,119,128,151,115,130,121,121,117,122,62,110,124,124,121,138,124,135,153,129,125,118,121,104,114,117,125,128,112,114,121,115,127,134,120,114,118,130,121,122,125,106,131,126,149,126,121,142,106,110,114,141,105,117,121,130,124,123,117,86
112,120,120,109,128,139,92,122,125,129,121,200,142,128,122,107,127,129,121,115,109,113,114,121,116,110,121,114,111,105,120,110,119,114,121,132,116,98,115,121,123,135,120,124,112,82,125,119,116,117,122,101,101,107,79,103,122,122,120,124,132,96,137,123,109,120,121,134,129,125,114,109,152,126,120,92,124,128,133,170,113,119,121,120,98,101,130,106,120,124,121,117,125,121,153,125,119,118,121,104,113,73,31,91,141,133,120,125,111,123,137,129,116,120,121,118,152,112,132,117,111,122,120,137,105,121,119,112
137,124,121,130,140,135,131,124,116,122,121,111,117,102,119,112,110,116,121,112,121,132,135,120,121,109,121,139,134,128,84,104,121,128,122,141,121,118,146,122,132,124,121,106,111,123,100,110,125,127,120,145,145,82,96,113,115,112,121,119,122,150,142,119,120,119,121,107,123,159,101,134,126,123,121,110,117,68,55,107,124,119,121,125,138,213,162,124,129,122,120,108,124,87,115,103,121,126,121,119,113,111,131,146,110,105,122,106,98,107,82,91,112,120,121,124,97,108,81,100,123,126,121,123,139,134,65,98
125,124,120,162,152,113,123,135,121,116,121,105,116,107,115,117,111,126,121,123,117,187,132,109,108,126,121,120,123,110,61,138,158,131,120,122,123,98,134,111,102,116,121,134,120,90,142,129,121,118,120,115,117,130,110,131,110,118,121,125,111,109,119,104,129,123,120,120,123,155,135,136,117,120,121,137,136,141,157,110,116,123,121,140,125,126,69,108,117,123,121,115,112,83,127,108,116,119,121,132,135,241,140,113,132,124,121,114,130,102,105,129,110,122,121,127,104,106,134,126,113,117,120,98,115,124,125,96
105,108,122,115,94,72,88,110,115,115,121,132,127,118,79,112,126,128,120,146,143,133,111,121,117,118,121,110,110,112,128,141,125,120,121,116,98,118,122,132,116,121,121,144,139,148,91,121,129,120,120,125,128,94,88,126,113,124,121,115,114,121,117,85,113,123,121,111,107,126,136,111,130,123,121,167,157,132,97,148,116,120,121,138,129,115,112,121,127,123,121,97,109,105,116,115,114,116,121,99,106,125,150,116,118,115,121,137,118,78,112,115,114,125,121,133,130,170,87,75,114,124,121,123,113,100,117,127
132,128,121,114,115,124,138,120,135,119,121,115,121,116,111,132,110,120,121,131,117,102,121,117,120,123,120,122,121,107,89,117,109,125,121,132,140,170,137,107,129,109,121,123,109,76,107,134,116,129,120,132,117,109,98,114,122,120,120,123,111,117,173,159,115,119,120,118,117,108,100,113,131,122,121,108,112,109,74,127,124,130,120,133,140,144,126,111,117,115,120,140,124,123,115,111,124,122,120,116,122,122,110,126,116,115,120,115,123,137,130,121,124,124,120,101,111,127,143,124,111,116,121,130,121,117,120,107
122,128,120,106,111,132,115,126,121,118,120,116,109,114,144,134,122,127,121,127,130,122,120,101,111,117,121,117,114,95,129,110,123,119,120,119,135,157,128,113,125,122,120,117,109,139,120,115,112,121,121,104,89,84,114,123,108,118,121,160,153,193,153,117,135,132,120,116,129,124,139,125,129,121,121,125,123,131,109,131,110,114,120,128,116,122,136,124,127,121,121,102,107,111,158,129,115,122,120,155,133,113,102,101,118,123,120,98,103,118,108,117,109,125,120,139,118,128,109,100,124,119,121,115,109,123,120,127
113,117,120,116,115,120,124,108,110,119,121,115,115,108,145,117,112,119,120,137,119,95,71,109,107,120,121,123,120,127,129,105,157,131,121,178,156,135,111,181,117,116,121,115,98,104,115,121,115,119,120,117,108,103,112,103,127,120,121,127,148,131,124,116,134,128,121,141,130,104,125,135,117,119,120,119,122,110,115,122,98,112,122,116,117,45,114,106,138,126,120,130,156,242,161,127,121,122,121,121,119,114,129,127,120,127,121,113,120,106,99,115,119,120,121,105,111,118,138,144,101,117,121,140,142,41,132,97
135,120,121,133,137,124,108,102,135,132,121,166,167,138,121,123,107,118,120,113,99,106,155,117,118,113,121,118,99,121,117,128,123,129,120,115,123,173,117,112,129,127,121,146,107,116,122,125,118,116,121,123,121,118,136,138,120,123,121,118,114,91,133,115,117,120,120,124,123,141,90,110,136,124,121,125,128,110,142,141,125,121,120,122,115,132,147,120,109,122,121,128,117,120,124,98,129,125,121,132,141,112,121,131,116,118,121,116,110,110,72,90,123,119,121,116,124,109,121,136,120,120,120,108,90,98,120,125
111,118,121,143,135,139,92,101,125,119,120,110,108,117,136,140,124,126,120,120,134,130,141,137,115,121,121,109,111,108,107,107,106,116,121,141,123,137,144,105,137,125,121,120,137,188,134,144,127,123,121,112,107,109,115,111,111,127,121,120,115,115,117,109,111,114,121,110,118,121,110,111,141,116,120,62,101,83,109,138,111,125,121,138,131,115,89,105,119,121,121,134,108,100,121,95,124,120,121,112,111,110,129,136,119,122,121,127,120,121,146,126,123,125,121,132,128,128,130,118,124,120,120,117,124,113,126,120
120,126,121,121,119,136,85,122,136,119,121,114,111,132,131,156,137,127,121,119,121,125,127,137,109,120,121,160,149,122,103,100,118,123,120,121,150,87,134,121,114,115,121,89,110,162,115,105,129,119,120,135,142,147,117,136,119,123,121,150,119,99,151,121,117,119,120,121,131,110,129,113,128,126,121,123,122,150,148,146,119,117,121,91,114,113,112,106,126,123,121,134,130,100,80,132,117,122,121,134,133,124,120,104,117,124,121,126,115,114,115,125,130,118,120,119,113,133,121,115,114,116,121,123,122,123,94,110
119,119,120,119,115,126,100,124,124,122,121,122,129,135,112,108,122,123,121,119,120,123,119,125,115,118,121,125,121,118,119,114,121,123,121,119,118,119,122,125,122,119,120,125,122,120,124,122,125,124,121,120,123,122,130,122,118,119,121,122,120,121,127,124,123,119,120,121,123,132,114,114,119,124,121,124,123,119,130,130,121,120,121,114,120,113,75,109,119,120,121,105,118,122,125,119,119,122,121,125,121,123,141,117,120,121,121,118,128,125,126,120,118,120,121,119,119,122,115,113,116,119,121,112,123,118,87,119
125,117,120,130,120,118,116,119,115,127,120,117,119,117,78,117,119,119,121,120,120,117,120,120,124,122,121,122,121,120,123,124,120,124,121,122,120,119,119,119,128,123,121,118,120,119,121,128,113,115,121,123,121,128,119,114,120,123,120,117,120,122,128,122,122,125,121,123,120,122,132,122,121,118,120,120,120,122,121,119,120,121,120,122,124,123,116,124,118,119,120,123,125,123,83,119,127,122,121,125,125,125,129,124,120,122,120,120,115,112,120,126,123,128,120,121,154,127,123,112,119,116,120,122,110,114,120,129
121,119,121,122,130,124,121,119,116,124,121,123,127,144,119,107,128,122,121,115,121,129,118,134,118,120,121,121,112,113,114,118,116,120,121,131,141,159,126,115,122,120,120,120,121,118,133,129,119,122,120,120,121,124,119,118,120,119,121,122,116,117,119,120,118,121,121,120,131,124,122,115,124,123,121,122,130,120,124,123,120,121,120,124,111,101,124,125,129,126,120,126,118,117,125,139,116,121,121,127,117,107,117,117,132,121,120,118,120,122,125,143,117,122,121,126,134,124,123,116,124,123,120,124,130,151,126,126
123,122,120,122,101,109,125,121,117,119,120,125,135,117,124,120,120,123,121,118,116,117,117,121,120,121,121,121,120,121,121,119,121,122,121,122,121,120,120,121,119,120,121,120,120,120,121,118,123,123,120,122,122,122,124,122,126,123,126,123,122,122,125,133,121,121,141,121,122,121,122,118,119,122,156,121,121,120,119,117,119,118,140,121,121,121,121,118,120,121,171,120,120,120,121,119,121,123,194,121,116,109,120,120,120,121,218,120,121,120,121,120,121,121,228,119,121,121,121,121,120,121,241,119,121,121,121,119
120,121,242,120,121,121,122,120,119,120,241,119,121,122,120,121,121,122,242,119,121,122,120,118,121,122,241,120,121,119,121,124,120,121,242,120,122,120,122,121,122,123,242,122,128,121,147,155,119,119,242,118,115,119,102,91,120,121,242,117,116,120,98,90,121,122,170,120,119,120,111,107,120,122,135,122,122,122,118,120,120,121,126,122,121,121,121,121,121,122,123,121,121,122,122,122,121,122,122,122,122,122,119,122,120,121,122,122,122,121,124,121,119,121,122,122,121,121,122,121,121,121,121,122,121,122,122,121
120,121,121,122,122,122,120,119,120,120,121,121,122,122,122,121,121,123,122,122,121,121,120,121,120,121,121,121,121,122,123,119,120,121,122,122,121,121,120,118,120,121,121,122,121,120,120,121,120,121,121,122,121,122,122,121,120,120,121,122,121,123,122,121,120,120,121,122,121,121,121,121,120,120,121,122,121,122,122,120,121,123,122,122,121,120,121,120,121,122,122,122,122,122,123,120,121,122,121,121,120,121,121,120,121,122,122,121,120,120,121,120,120,121,121,122,122,121,121,120,121,121,121,122,121,121,121,119
121,121,120,121,121,121,122,122,120,121,121,122,121,118,121,120,120,121,121,122,122,121,121,120,121,122,121,122,122,121,119,120,122,123,122,122,121,121,122,123,119,118,120,121,122,121,121,118,119,121,121,121,120,116,89,119,121,122,120,122,121,121,121,118,121,122,122,122,121,120,121,121,120,121,121,121,121,121,123,121,120,122,121,122,121,121,121,120,121,120,120,121,121,121,122,120,119,121,121,122,121,121,120,119,120,121,121,121,121,121,122,120,121,121,120,122,121,121,124,121,121,122,121,121,121,120,121,121
121,122,121,122,121,121,121,121,121,122,121,122,122,122,121,119,121,122,121,122,122,121,121,121,119,120,121,122,121,121,121,121,120,122,121,122,122,120,120,120,121,122,122,122,120,120,119,121,121,122,121,121,122,120,139,123,120,121,121,122,121,119,123,119,121,122,121,121,121,120,122,122,120,121,121,121,121,121,122,120,121,123,122,123,122,119,121,121,120,121,121,121,121,123,120,119,118,119,121,120,120,118,129,118,121,122,120,121,121,121,121,120,121,122,121,122,120,120,121,119,121,122,121,121,120,120,120,120
121,121,120,121,121,121,120,122,121,124,121,121,121,121,121,122,119,118,121,122,122,120,123,120,121,121,121,122,121,122,122,120,121,122,120,122,121,121,123,122,121,122,121,122,121,120,121,121,121,121,120,122,122,121,121,119,121,122,121,121,121,121,123,119,121,122,121,122,121,120,122,121,119,119,121,121,121,122,121,121,121,123,121,121,121,120,120,120,121,122,121,121,121,121,121,119,121,122,121,122,122,122,117,119,120,121,120,121,121,121,123,122,120,122,121,121,120,121,121,122,118,119,121,121,120,119,131,117
121,123,121,122,120,121,120,120,121,122,121,122,122,121,121,119,121,121,120,121,121,122,122,122,120,120,121,122,122,123,129,121,120,121,121,122,121,121,120,119,121,123,121,121,120,120,120,121,121,122,121,122,121,121,121,121,121,121,122,122,121,120,122,122,119,121,121,121,121,121,121,119,120,120,122,122,122,122,120,120,121,122,121,121,120,121,121,120,121,123,120,121,120,121,122,119,121,121,121,122,121,120,121,120,121,122,121,122,122,122,121,119,120,121,121,122,121,121,121,120,120,121,121,122,121,121,122,121
120,121,121,120,120,121,121,120,120,122,121,122,121,120,121,120,121,121,108,122,121,121,121,122,121,122,107,122,121,122,121,120,119,119,105,122,122,121,120,119,119,119,109,122,121,121,121,120,122,124,108,123,122,121,123,121,121,123,107,121,120,121,122,120,119,121,108,122,121,120,110,118,120,121,107,121,120,121,121,120,121,122,109,122,121,122,123,119,121,122,111,122,121,121,122,122,121,122,110,123,121,120,121,119,121,121,108,121,121,121,121,120,120,120,109,122,121,121,121,121,120,121,110,122,122,121,121,120
121,122,110,121,121,121,121,120,120,121,110,122,121,121,121,121,119,120,110,122,122,122,121,119,120,123,112,122,121,121,122,121,121,122,111,122,120,121,122,119,120,121,111,122,121,121,121,120,120,121,111,122,121,121,122,120,121,121,113,122,122,120,122,122,119,119,111,122,122,121,121,119,120,121,114,122,121,121,122,119,121,122,114,123,123,124,132,121,119,120,112,122,121,121,123,119,121,121,112,123,122,120,121,119,120,121,112,122,121,121,122,120,120,121,113,122,122,121,122,121,119,120,112,122,121,122,121,121
119,121,113,121,119,114,119,116,120,120,112,122,121,121,122,120,120,120,114,122,122,121,121,120,121,122,113,121,121,121,121,120,121,123,115,122,120,120,120,121,120,121,113,123,121,119,120,121,120,120,113,121,120,120,121,120,120,123,114,122,122,121,122,119,121,122,115,122,121,120,120,120,120,122,114,123,122,122,122,121,121,122,115,122,121,121,121,121,120,121,115,122,120,121,122,120,119,120,114,121,120,120,121,120,121,122,115,122,121,121,120,120,120,121,114,122,122,121,121,121,121,121,114,120,121,121,122,120
120,121,115,121,121,121,122,120,121,122,116,121,121,120,120,121,122,122,115,122,121,121,122,121,120,122,116,121,121,121,121,120,119,120,115,122,121,120,120,120,119,121,119,122,121,121,110,119,122,123,120,124,124,126,132,123,120,122,116,123,121,121,122,121,121,121,114,121,121,121,121,120,120,121,114,122,121,122,121,121,120,121,115,122,122,121,121,119,120,121,115,122,122,120,119,120,120,121,115,122,121,121,122,121,121,120,116,121,121,121,121,121,120,123,115,122,121,121,121,119,120,119,117,122,123,125,131,120
121,121,116,121,121,120,121,120,121,122,118,122,122,121,122,121,121,122,116,121,121,121,122,122,120,122,117,122,121,120,120,119,121,122,118,122,120,121,120,119,120,121,116,122,121,122,121,118,119,120,116,121,121,120,121,120,120,120,117,121,121,121,122,121,121,122,117,123,122,122,122,120,121,122,116,121,120,119,106,118,120,122,117,122,122,121,124,120,120,120,116,121,120,122,121,121,121,122,118,122,121,120,121,119,119,119,116,121,121,121,121,121,119,120,117,122,121,121,121,118,121,122,118,122,122,122,121,121
121,122,118,122,120,120,119,118,121,122,118,122,121,120,121,118,120,121,118,122,121,120,121,121,120,121,118,122,122,121,121,120,122,123,122,122,120,120,120,121,119,119,115,121,123,124,102,119,120,121,117,121,121,121,121,121,122,122,117,122,121,120,121,123,120,121,117,122,122,121,120,121,120,121,117,122,121,121,121,121,120,121,118,122,121,120,120,119,121,121,117,122,121,120,121,119,121,121,118,121,121,121,122,119,120,120,117,121,121,121,122,122,121,122,119,122,121,122,121,122,121,121,119,122,122,121,121,119
121,121,118,122,122,123,133,121,120,121,119,122,121,122,123,119,120,120,119,122,122,122,123,119,121,123,118,122,121,120,121,120,120,120,118,121,120,121,121,121,120,121,118,122,121,121,121,119,121,122,119,122,122,121,121,120,120,121,118,122,121,121,122,121,121,122,118,121,121,121,121,121,120,121,118,121,121,122,121,121,120,120,119,122,121,121,122,121,119,120,118,121,122,121,122,122,122,122,119,121,121,119,120,121,119,120,118,122,121,122,122,118,120,122,119,122,121,121,122,120,120,122,119,123,121,122,122,122
121,122,119,121,121,121,123,121,121,121,118,121,121,121,122,122,120,121,119,121,121,121,121,119,120,122,119,122,121,120,123,119,121,122,120,122,121,121,120,121,120,121,119,122,121,121,119,119,121,121,119,122,121,122,122,120,120,121,119,122,121,120,121,119,121,122,119,121,119,120,121,122,121,120,119,122,122,121,122,121,121,121,118,121,121,121,122,123,121,122,119,121,121,121,121,121,120,121,119,121,120,120,121,119,119,119,118,121,121,121,128,120,121,122,119,121,121,121,122,120,121,122,120,122,121,120,121,119
122,122,119,122,123,125,140,124,120,120,119,122,122,122,120,120,120,121,119,122,121,121,121,122,120,121,119,122,121,122,121,120,120,121,120,122,120,120,121,118,122,121,120,122,121,121,123,122,121,122,120,122,121,120,122,121,120,121,119,122,121,121,123,120,121,122,120,122,120,120,120,121,120,122,120,122,121,120,121,119,120,120,120,122,121,120,120,120,120,121,119,122,122,120,121,119,120,120,118,121,121,121,122,120,120,121,119,121,121,122,122,119,121,123,121,123,121,121,120,121,121,122,120,122,120,117,105,119
120,121,118,121,121,121,122,120,121,122,119,121,121,120,122,120,121,123,121,123,121,121,121,121,121,120,118,121,121,121,121,121,121,121,119,121,121,122,121,122,120,122,120,122,121,121,122,121,120,121,120,122,122,121,120,119,121,122,120,121,121,121,120,120,121,121,121,122,120,120,121,120,121,121,119,121,121,120,121,122,118,120,119,121,119,115,131,118,121,123,119,122,121,120,120,119,120,121,120,122,121,122,121,121,120,122,120,122,122,121,120,118,120,121,119,121,121,122,123,119,120,122,120,123,122,121,121,120
120,122,122,121,120,121,121,120,119,119,117,121,121,121,121,119,120,121,120,122,121,122,122,120,121,122,120,122,122,121,120,121,120,122,121,122,120,121,121,121,120,122,120,122,122,121,121,119,120,121,120,122,122,121,120,119,121,121,120,122,121,122,122,120,120,122,120,122,121,121,115,117,121,121,120,122,121,121,122,120,120,121,120,122,121,121,123,120,120,121,120,122,121,121,121,122,120,122,120,122,122,122,121,119,120,121,120,122,122,121,121,120,119,119,119,121,121,121,121,119,120,122,120,122,122,121,120,121
121,122,120,121,121,122,122,119,120,121,121,122,121,120,121,120,121,123,120,122,121,120,123,121,120,121,119,121,121,121,121,123,120,123,122,122,121,121,120,119,121,121,119,123,121,120,122,120,120,121,120,122,121,121,122,121,121,122,120,122,121,121,122,120,120,121,119,122,121,121,121,120,119,120,119,121,121,122,122,120,120,121,119,121,121,121,123,120,120,121,120,121,122,122,122,121,120,121,120,122,121,121,120,119,120,119,120,122,121,121,121,121,120,122,120,122,121,121,121,120,121,122,120,122,121,120,122,120
120,121,120,122,122,122,121,121,120,120,119,121,121,121,121,119,120,120,120,122,121,121,122,122,121,122,121,123,121,120,121,122,120,121,120,122,121,122,120,120,120,121,120,122,122,121,122,120,121,121,121,122,121,121,123,121,121,121,120,121,120,121,120,120,121,122,120,121,120,121,121,121,120,121,121,122,121,122,122,120,120,121,120,122,121,121,121,119,121,122,121,120,121,121,122,119,121,121,119,122,121,120,120,122,119,121,121,122,121,122,121,119,120,122,121,122,122,121,124,121,121,121,121,122,121,121,121,119
119,118,119,121,122,121,121,120,120,121,119,121,120,119,121,121,121,123,121,122,121,120,120,119,121,121,120,121,121,121,122,123,120,121,120,122,121,122,121,118,120,121,120,122,122,121,120,121,121,122,120,121,121,121,121,121,121,121,120,122,121,120,122,121,121,122,121,121,120,120,121,121,121,121,119,120,120,121,120,119,121,122,121,122,122,120,122,121,120,121,121,122,122,123,127,119,121,121,120,122,122,122,122,120,120,121,120,122,121,122,122,119,121,122,120,122,120,120,120,122,120,122,121,122,120,120,121,120
120,122,121,121,120,120,121,120,120,120,121,122,121,120,121,119,120,120,120,121,120,120,121,120,122,124,121,121,121,121,121,121,120,121,120,121,122,121,121,120,121,122,121,123,121,121,122,121,120,121,120,122,122,122,121,120,120,121,121,122,121,120,121,119,121,122,121,121,120,121,122,121,121,122,121,122,122,121,121,121,121,121,120,121,121,121,121,121,121,121,121,122,121,122,121,120,121,121,119,121,121,121,121,119,119,122,121,122,122,122,122,120,120,119,119,122,121,120,122,121,121,124,121,122,121,120,122,121
121,122,120,121,121,121,122,121,120,121,119,121,121,121,121,121,121,123,122,122,121,122,122,121,119,120,119,122,122,123,127,120,121,121,121,121,121,121,123,120,121,122,120,121,121,122,122,120,121,122,121,123,122,120,121,121,120,121,120,122,121,122,122,120,119,120,120,121,121,121,123,120,120,121,120,121,121,121,121,122,121,122,121,122,121,121,122,121,120,121,119,121,121,122,121,121,120,121,120,122,121,121,121,120,120,120,120,121,121,121,121,121,121,122,121,121,121,121,122,120,120,121,121,122,121,122,122,122
121,121,121,121,120,121,121,121,120,121,120,122,120,121,120,119,120,123,121,121,120,120,123,119,121,123,121,122,122,121,121,119,121,122,121,123,120,120,120,121,121,122,121,122,121,120,121,121,121,123,123,122,121,121,122,119,119,119,118,122,121,121,122,120,120,122,121,122,121,121,121,121,120,120,120,122,121,121,121,120,120,122,121,122,122,122,122,119,121,121,120,122,121,121,121,121,120,122,121,122,122,121,120,119,120,121,121,122,121,121,121,120,120,122,120,122,122,122,122,119,120,121,120,122,121,121,121,121
120,119,120,122,121,121,121,119,120,122,120,121,121,121,121,121,120,121,119,121,121,120,114,120,120,122,121,122,121,120,122,119,121,122,120,121,121,123,123,119,121,122,122,122,122,122,121,120,121,121,122,122,121,120,121,121,121,121,120,121,121,121,121,119,121,122,120,121,120,121,121,121,120,122,121,122,122,122,121,121,120,120,120,122,122,121,121,121,120,121,120,121,121,120,122,119,121,122,120,121,120,119,121,120,121,122,120,121,121,121,121,122,121,122,121,122,121,120,120,120,120,121,121,122,122,121,123,121
119,120,120,122,121,122,121,120,120,122,120,121,121,122,122,120,121,122,121,122,122,121,123,119,121,122,121,122,122,121,120,121,121,122,121,123,121,120,120,119,121,122,121,121,120,121,120,121,120,122,121,123,122,121,121,120,119,120,120,122,121,121,121,120,120,121,120,122,121,121,121,122,121,121,120,121,121,122,121,119,119,121,121,122,122,121,121,120,120,121,121,122,120,117,111,120,121,124,122,122,121,122,123,121,120,121,120,122,121,121,123,120,121,122,121,122,121,120,122,121,120,121,121,121,120,121,121,120
121,121,119,121,121,121,121,120,120,120,120,121,121,122,121,121,119,120,119,121,122,119,120,120,121,123,122,121,121,121,122,122,121,122,121,122,120,120,121,120,121,122,120,121,121,121,121,121,120,120,120,122,121,121,123,118,121,122,121,122,121,120,121,120,121,122,121,122,121,121,121,122,118,118,120,121,121,121,121,121,121,122,121,122,121,120,121,119,120,121,121,122,122,121,120,119,121,122,121,122,121,121,121,122,120,122,121,122,121,121,121,119,120,122,121,122,122,121,120,120,120,121,120,121,121,121,121,120
120,121,121,121,120,121,122,120,121,123,122,121,121,121,122,120,120,120,119,122,122,122,127,120,119,121,121,122,121,122,124,120,120,122,121,121,121,122,121,120,121,122,120,121,122,122,122,121,120,121,121,122,121,122,121,119,119,121,121,122,122,121,121,120,119,120,120,122,121,120,119,119,120,121,121,122,122,121,121,120,122,122,121,121,121,121,122,121,121,122,122,122,121,121,121,121,120,122,121,122,122,121,120,119,121,122,121,122,121,121,120,122,120,120,120,121,121,122,121,120,120,120,120,122,121,121,122,120
120,121,120,121,121,122,121,119,121,121,120,121,121,121,122,120,121,121,121,122,121,120,121,124,120,121,121,122,122,122,121,120,121,121,120,121,122,121,124,120,120,122,121,122,121,121,122,120,120,122,121,122,122,122,122,120,120,121,121,122,121,122,121,120,121,122,121,122,121,120,121,120,119,121,121,122,120,117,103,118,121,121,121,122,121,121,123,120,120,121,120,121,121,121,122,120,120,122,121,121,121,121,121,120,121,122,121,122,121,120,120,120,120,121,121,122,122,122,122,118,122,123,122,123,122,122,121,121
120,120,120,122,121,120,121,120,120,121,121,122,121,121,119,119,120,122,121,122,122,121,122,120,120,121,121,122,121,121,122,121,121,122,121,121,120,121,121,121,120,121,120,122,121,121,121,121,121,122,121,121,120,121,122,121,121,119,120,122,121,121,122,119,119,121,120,121,121,120,122,121,119,121,120,121,121,120,110,118,121,122,121,123,122,121,121,121,120,121,121,122,121,121,122,121,121,122,122,123,120,121,122,121,121,122,121,122,121,121,121,121,120,121,121,122,122,121,121,119,121,122,121,122,121,120,121,120
119,121,121,122,122,122,122,120,120,120,121,121,121,121,122,121,121,122,121,122,122,121,121,121,121,122,121,121,121,121,121,121,121,122,121,121,120,120,121,121,120,120,121,121,121,120,121,122,120,121,121,122,122,122,121,121,122,123,121,122,121,120,121,120,120,120,119,121,121,122,121,121,119,119,119,121,121,119,119,119,121,122,121,122,121,121,122,120,121,122,121,122,121,122,122,121,121,122,120,121,121,121,122,121,120,121,121,122,121,122,121,121,121,122,121,121,120,121,122,121,120,121,120,122,122,122,122,120
120,121,120,121,121,122,120,120,121,122,121,121,120,120,123,121,121,122,121,121,119,117,105,119,119,120,120,121,122,121,122,120,121,121,121,121,121,120,121,121,121,122,122,121,120,120,121,120,121,122,121,121,121,121,122,121,121,122,121,121,121,121,122,121,121,122,121,122,120,120,121,120,121,122,121,122,122,121,121,120,120,121,122,122,121,121,123,119,120,121,120,121,121,121,121,121,121,121,120,121,121,121,121,120,120,121,121,122,121,121,121,121,120,122,121,122,122,122,121,120,121,121,120,121,121,121,120,122
120,121,120,121,121,120,120,119,121,122,122,122,120,120,121,121,121,121,120,122,121,121,121,121,120,121,120,121,120,122,121,119,121,122,121,122,122,121,120,120,120,121,121,122,121,121,121,121,120,121,121,122,121,120,120,117,121,122,122,122,121,121,124,120,120,121,120,122,122,124,121,120,120,119,119,121,121,121,121,120,120,121,121,122,122,121,122,121,121,122,121,122,121,121,122,119,120,121,120,122,121,122,122,120,120,121,121,121,121,121,122,119,120,121,120,122,122,121,122,120,120,121,120,121,121,121,121,120
121,123,121,122,121,121,121,121,120,121,120,122,122,121,122,120,121,121,121,122,121,121,122,121,120,120,120,121,120,121,121,119,120,121,120,121,121,121,121,119,121,122,121,122,121,121,121,119,121,122,122,122,121,121,121,121,121,122,121,122,121,120,120,120,120,122,121,122,121,122,122,120,121,121,120,120,121,121,123,122,120,121,121,122,121,120,121,119,121,121,120,121,120,119,120,120,121,121,121,122,121,121,121,120,121,122,122,122,122,121,121,120,120,122,121,122,121,120,122,121,121,122,121,122,122,124,128,121
120,121,121,122,122,121,122,120,119,122,123,122,121,121,121,120,120,121,119,121,122,121,122,119,121,121,121,122,121,120,122,121,120,122,121,122,121,122,121,118,120,121,121,122,120,120,121,120,121,122,121,122,120,121,122,121,120,122,122,121,121,121,121,120,121,120,119,120,121,121,121,120,120,121,121,121,121,121,123,119,121,122,122,122,122,121,121,122,121,122,120,121,121,120,122,121,121,121,121,122,121,121,122,120,120,122,121,121,121,120,119,121,120,120,120,121,120,120,121,120,121,123,122,121,121,120,120,120
121,121,121,122,121,120,121,121,120,121,120,122,121,121,121,119,120,120,121,122,122,121,121,121,121,122,121,121,120,120,121,122,121,122,121,122,121,120,121,118,120,121,121,122,122,121,121,121,119,120,121,122,121,121,122,121,120,122,121,122,121,120,121,119,121,122,120,121,121,121,121,119,120,121,121,122,121,121,121,120,119,119,120,121,120,120,121,122,121,122,121,122,121,121,122,119,121,121,120,121,120,121,120,120,121,122,121,122,122,122,128,120,120,121,120,121,121,121,122,120,121,122,121,122,122,122,122,120
121,122,122,121,121,121,122,121,120,122,121,122,122,121,120,120,121,122,121,122,121,120,119,121,120,122,121,122,121,120,120,120,120,121,120,122,121,121,123,120,120,121,121,122,122,121,120,119,121,123,120,121,121,121,122,121,120,121,121,122,121,120,122,119,121,122,121,121,121,121,121,121,121,122,122,122,120,120,121,122,120,121,121,122,120,120,119,120,120,122,121,122,121,121,120,120,120,122,122,121,121,121,122,121,119,119,119,122,121,120,121,120,120,122,122,122,121,122,118,121,121,122,121,121,121,121,122,118
121,121,121,121,120,121,122,120,121,122,120,122,122,122,122,119,120,121,121,122,121,121,121,121,121,121,120,121,121,121,121,121,120,121,121,122,121,121,121,119,121,122,121,122,121,121,121,118,120,121,120,120,120,118,124,118,120,120,120,122,121,121,121,119,120,122,121,122,121,121,121,122,121,121,122,122,122,122,120,122,121,121,120,121,121,121,121,121,120,121,121,122,121,120,122,119,120,122,121,122,121,120,121,120,120,121,121,121,121,122,120,119,121,122,121,123,122,123,121,121,119,120,120,122,121,121,122,122
120,122,121,121,120,120,121,120,120,122,121,122,121,121,122,120,121,122,121,122,122,121,122,121,121,122,121,121,121,121,121,119,120,121,120,122,121,120,123,121,121,121,121,122,121,121,122,120,120,122,122,122,121,122,122,121,120,120,120,121,121,121,123,120,121,122,121,122,121,121,121,119,120,122,121,122,121,121,121,119,120,121,121,122,122,122,122,119,121,122,121,122,121,122,122,121,119,120,120,122,121,121,121,119,121,122,120,121,121,119,120,122,120,122,121,122,121,121,122,121,120,120,120,121,121,122,120,118
121,122,120,121,120,120,121,122,120,121,121,122,122,120,120,120,120,122,121,122,121,121,122,120,120,121,120,121,120,118,126,118,121,122,121,123,122,122,121,121,121,121,120,121,121,121,122,121,119,121,121,122,122,122,121,119,121,123,121,121,121,122,127,119,121,122,121,122,122,121,122,119,121,122,121,121,121,122,121,120,121,121,120,122,121,121,122,122,119,121,120,122,121,122,121,119,121,122,121,121,120,120,120,120,121,121,121,122,121,119,121,122,120,121,120,122,121,121,121,122,119,120,120,122,121,120,121,118
121,122,121,122,121,121,121,121,122,122,121,121,121,121,121,118,121,121,120,121,121,122,120,120,120,122,121,122,121,120,121,121,120,122,122,122,120,120,121,121,121,122,121,123,121,121,121,120,120,122,121,122,122,123,131,120,121,122,120,121,121,121,123,122,120,120,121,121,121,121,122,122,120,121,121,121,120,120,121,122,120,122,121,122,121,121,120,119,122,122,120,121,120,121,122,120,120,121,121,122,120,120,120,119,120,121,121,122,122,121,121,120,121,122,122,122,121,122,102,121,121,121,121,122,121,120,120,119
120,121,121,122,121,121,120,120,121,122,121,122,122,123,133,124,121,122,122,122,121,124,120,120,119,118,120,121,120,120,104,120,119,121,121,122,121,120,122,117,121,120,120,122,121,122,122,121,121,122,122,122,121,121,123,120,120,122,121,121,120,120,121,121,120,122,121,122,121,121,120,120,120,121,121,122,121,121,120,122,118,119,119,121,121,119,120,116,121,123,121,121,119,119,117,122,120,121,121,121,121,120,124,121,121,122,122,123,122,122,138,123,121,121,120,121,121,121,122,120,119,121,121,122,121,119,117,114
120,120,119,121,121,121,120,113,122,123,122,122,120,116,119,119,118,120,119,120,123,117,109,113,115,120,120,120,117,120,144,117,124,121,121,123,122,122,126,126,119,119,119,123,122,119,116,121,110,118,118,117,116,118,83,124,122,121,121,122,121,117,100,72,122,120,122,129,134,120,135,168,117,123,124,129,150,131,111,108,137,123,122,121,122,130,128,123,112,119,120,120,140,131,129,100,110,117,116,109,101,111,102,111,121,126,122,113,89,115,132,116,151,127,125,119,140,176,158,146,102,118,114,87,110,111,112,110
136,123,121,123,131,113,129,161,104,120,121,123,103,111,115,85,126,122,121,100,117,115,105,130,107,119,120,123,127,109,83,53,142,126,124,114,120,119,159,203,111,122,121,119,144,159,86,102,123,120,122,130,134,122,143,144,109,119,120,118,92,119,112,111,135,130,129,135,118,84,135,173,133,126,127,126,118,132,142,116,114,120,121,161,126,110,108,113,121,117,117,138,146,85,137,118,108,123,123,126,121,114,119,122,140,126,120,101,97,117,115,128,143,127,129,146,152,146,132,178,116,119,119,115,106,155,131,93
115,121,123,121,120,185,118,119,111,118,115,103,104,112,118,113,116,117,115,114,117,164,111,123,127,115,118,118,108,21,103,123,116,125,126,137,138,109,153,111,116,125,122,123,169,167,188,172,118,119,117,118,110,129,123,117,113,123,123,129,130,120,105,106,125,123,127,153,156,124,58,129,116,121,125,166,125,121,102,129,116,121,120,119,121,122,142,144,120,119,119,117,117,127,124,140,170,130,128,124,145,134,131,162,102,116,116,123,122,102,127,116,113,118,119,117,108,146,130,106,118,120,118,122,126,126,124,99
120,120,121,121,119,110,116,151,125,130,123,124,123,121,128,104,110,114,117,127,121,118,104,110,114,116,120,121,128,138,100,112,158,133,132,132,151,135,166,176,110,111,112,132,131,122,121,100,117,129,119,104,105,124,123,110,108,114,121,117,115,96,107,102,116,120,122,121,120,117,122,153,130,127,124,112,132,115,115,137,123,118,114,111,93,108,114,131,107,116,116,87,62,79,109,101,107,117,115,102,113,117,52,115,136,121,120,119,114,123,155,186,118,121,121,122,121,125,123,104,112,117,121,125,125,122,121,115
114,120,120,122,121,121,108,112,121,121,119,119,128,132,126,127,117,124,126,118,119,125,133,125,137,127,122,122,114,102,132,137,119,121,124,132,119,108,103,102,140,125,123,124,122,125,125,113,111,120,121,121,120,118,110,116,124,120,120,124,129,124,120,124,112,120,122,128,130,106,115,110,117,124,117,125,136,125,88,121,118,117,120,101,102,115,118,117,110,123,121,117,98,93,143,107,111,116,113,83,110,104,71,82,129,124,122,121,118,119,154,140,114,120,120,119,120,124,103,103,115,119,121,123,122,119,170,125
108,117,119,118,101,104,132,109,125,119,116,109,98,122,160,144,118,123,121,119,119,120,121,124,129,119,118,115,94,124,124,120,110,117,117,114,98,101,115,110,120,122,121,120,133,164,131,120,116,120,120,125,116,122,108,88,125,125,127,153,206,186,120,154,116,121,123,119,119,117,101,122,134,126,122,111,111,117,127,112,113,119,117,116,117,118,120,116,115,118,121,119,103,110,123,122,118,123,123,117,92,85,106,93,115,119,119,120,120,123,133,135,121,119,124,123,121,120,115,112,109,120,122,119,108,120,107,105
131,129,128,118,122,116,123,142,119,121,119,116,112,89,121,147,117,118,118,116,95,113,83,130,118,123,123,124,141,165,131,108,127,124,122,135,138,123,134,152,108,119,120,121,118,120,137,88,116,112,117,117,119,117,125,127,129,134,126,119,79,117,109,108,119,118,120,119,118,122,141,159,116,116,116,120,118,134,121,132,112,125,121,122,120,120,130,119,125,116,119,110,116,122,123,134,113,120,118,117,116,117,83,104,124,122,120,120,118,115,122,112,123,122,120,109,118,129,131,127,121,124,118,127,144,173,114,117
125,123,122,116,103,119,137,145,113,119,117,119,128,133,109,104,115,119,119,101,95,118,120,110,120,118,120,125,104,94,158,131,106,118,117,119,120,119,129,109,139,126,126,125,134,127,145,155,113,119,121,119,117,119,111,103,121,124,122,138,125,123,136,91,128,124,119,116,125,124,138,166,117,120,120,122,118,117,117,117,118,123,122,120,126,138,77,91,121,119,117,126,130,129,149,133,119,119,121,117,121,103,94,122,120,123,125,127,129,118,119,131,121,122,122,121,123,125,120,117,109,115,120,117,115,118,90,117
121,122,120,119,117,114,111,120,119,125,118,121,123,128,126,126,118,114,117,121,121,115,129,127,106,119,120,117,131,117,165,124,149,133,123,138,149,165,215,176,99,117,114,118,122,127,102,73,127,125,111,122,123,125,123,119,108,113,98,116,119,128,117,107,118,121,20,122,118,116,120,121,113,122,0,124,132,119,130,120,114,122,0,123,128,141,120,125,125,124,0,129,130,126,131,120,109,117,15,125,118,99,144,136,121,120,76,132,132,125,143,114,122,123,103,117,116,124,134,116,111,120,117,124,54,72,91,100
120,120,105,121,120,122,115,108,117,126,129,121,120,123,119,138,123,120,139,123,124,124,120,114,115,116,137,125,119,124,111,115,127,129,140,124,126,130,101,120,118,118,125,120,117,111,118,101,123,124,106,121,129,120,109,105,116,120,108,121,117,121,74,82,130,124,93,123,123,122,127,136,118,121,110,125,122,103,115,114,123,122,98,124,126,137,107,124,130,124,134,141,122,112,110,141,111,120,108,118,127,107,119,103,124,124,108,122,120,116,111,100,109,115,135,111,117,116,121,146,120,121,120,119,114,110,81,100
115,120,125,96,107,117,123,106,130,126,134,123,116,109,114,133,123,121,107,121,123,125,130,122,122,117,109,120,119,111,88,118,118,120,142,113,119,113,123,117,121,125,126,120,129,116,129,119,114,119,109,122,114,110,113,111,112,122,133,122,123,138,116,100,121,121,107,122,121,121,122,128,133,120,120,122,128,130,176,174,107,118,107,109,110,126,92,99,123,123,116,124,118,129,107,102,113,125,109,117,123,122,134,115,120,121,130,120,122,132,116,111,118,120,110,119,118,118,119,107,126,123,133,131,127,97,161,140
113,124,147,122,116,119,111,105,128,127,133,120,146,157,110,113,124,115,120,119,119,114,126,125,118,121,121,123,121,119,119,113,119,122,123,119,121,123,120,121,125,121,128,125,120,120,92,111,120,121,126,116,116,118,121,113,121,123,119,117,116,118,95,119,122,120,101,125,118,109,113,125,116,117,102,121,120,124,116,126,99,121,104,128,125,124,155,118,144,124,105,123,122,124,116,133,106,115,141,121,122,125,122,108,114,118,141,89,119,99,122,118,130,129,125,132,163,180,132,123,122,121,116,117,116,121,95,101
129,124,119,118,120,127,116,142,124,120,120,121,121,119,118,141,121,126,103,116,113,123,120,121,115,117,123,118,118,118,100,104,115,122,132,120,109,114,115,105,123,123,122,123,118,122,86,128,119,123,107,122,121,120,131,108,116,119,117,127,116,122,123,118,122,123,117,118,127,120,116,120,121,122,114,114,118,118,167,128,123,124,114,124,124,127,130,154,125,120,98,123,123,124,113,119,125,122,132,121,122,123,142,145,119,121,118,121,121,123,117,128,116,121,133,113,110,119,114,94,121,120,109,129,101,147,119,127
122,127,128,119,119,123,123,114,114,121,100,121,118,111,107,108,123,122,103,122,120,119,127,120,119,120,134,122,123,123,115,125,117,120,126,119,118,121,120,129,119,120,136,114,122,114,127,113,117,122,114,116,73,73,118,123,128,123,124,120,117,111,136,143,117,122,119,120,121,122,110,108,120,120,134,122,123,125,116,105,119,120,127,121,121,120,130,123,118,124,109,128,123,128,144,120,120,120,152,121,121,118,132,113,123,125,140,121,133,123,144,123,133,125,115,128,141,136,131,133,118,116,97,121,119,115,109,127
118,124,110,121,120,119,126,113,126,121,81,125,124,122,126,121,116,123,92,130,119,120,131,120,122,122,91,124,121,124,121,112,138,124,106,124,122,113,132,133,117,118,125,121,124,128,129,129,116,122,123,121,121,119,121,117,119,121,111,118,120,121,116,113,118,119,130,115,99,109,116,118,125,125,148,130,159,170,168,146,118,119,119,120,126,139,93,129,126,129,117,123,123,132,118,101,123,118,105,123,121,116,121,130,118,118,106,120,122,123,94,120,120,122,116,115,119,122,117,123,118,120,113,121,122,122,125,115
120,122,143,120,118,119,120,126,117,121,150,127,125,119,115,110,124,119,112,123,121,119,123,141,125,123,101,123,122,121,122,114,119,118,112,133,138,123,75,109,112,119,132,121,135,125,117,116,120,123,114,125,141,125,134,128,133,124,91,120,110,105,79,139,124,125,127,122,123,124,127,103,116,120,120,121,120,120,102,112,113,115,112,121,126,117,100,118,117,119,122,120,113,127,99,119,129,126,117,122,123,129,127,133,118,122,136,123,121,117,110,104,116,120,119,118,121,129,136,113,127,121,130,121,119,119,117,124
124,120,128,104,112,119,104,105,118,121,120,132,141,144,130,118,113,120,102,121,122,120,117,113,116,122,119,120,120,118,122,106,117,118,131,120,120,119,118,135,122,122,118,111,119,123,125,115,119,120,117,120,120,119,121,127,114,120,151,121,131,123,118,122,112,114,155,112,106,122,148,130,128,122,145,126,118,118,150,134,141,129,114,126,125,131,152,138,121,121,131,123,123,124,148,135,120,119,115,122,122,120,140,138,116,118,110,120,128,96,112,108,120,124,111,148,143,140,162,133,138,125,112,121,125,130,150,134
110,120,122,119,120,129,82,91,121,120,145,116,120,116,126,128,115,117,106,123,121,123,119,129,116,124,91,129,104,118,89,93,122,122,96,117,106,123,100,109,117,123,104,125,121,119,91,111,113,117,108,120,120,121,124,120,125,123,112,121,122,124,130,134,125,121,111,123,122,121,140,119,114,124,146,122,122,123,124,118,133,121,137,123,121,120,119,125,116,121,109,128,128,119,107,117,122,121,105,123,125,121,124,111,123,124,119,121,123,132,137,129,123,121,112,112,103,108,116,146,112,121,120,123,121,117,112,90
134,121,132,128,127,122,124,140,116,119,132,110,111,89,113,128,115,121,127,121,115,113,121,122,124,126,134,123,123,119,136,123,123,119,130,120,120,117,120,115,116,116,143,120,130,127,118,111,120,127,115,124,124,123,125,106,113,121,113,120,123,127,118,112,117,119,117,120,119,115,121,115,116,120,103,122,121,119,117,111,120,121,127,120,116,120,109,121,122,119,116,132,130,126,127,119,124,125,122,124,129,128,144,124,113,120,148,120,120,122,136,121,122,123,110,121,122,123,125,126,113,117,98,119,118,118,123,117
118,120,92,120,117,120,119,114,118,120,131,121,118,126,115,118,117,125,112,125,128,123,103,116,122,119,141,122,123,121,111,113,123,125,138,121,122,120,123,132,114,116,135,121,120,119,120,121,116,120,129,119,120,119,108,113,123,123,117,122,156,126,137,119,120,121,122,113,102,115,100,111,128,126,130,124,125,127,155,129,117,117,125,114,113,128,60,82,117,118,100,122,118,114,120,117,122,121,129,122,119,133,100,117,108,122,125,121,120,120,119,106,138,124,128,119,121,122,151,148,114,118,84,120,116,121,110,107
118,120,106,123,122,117,109,110,116,122,107,122,129,115,120,117,121,122,111,130,116,113,146,135,125,118,107,115,120,127,135,116,115,124,109,125,136,127,145,130,116,118,109,121,119,118,107,101,115,120,108,121,115,115,111,125,116,116,139,120,127,132,129,116,115,121,137,123,135,123,123,114,115,119,103,124,122,126,136,118,129,122,108,124,121,121,155,134,118,125,129,124,125,118,125,111,122,121,143,121,121,120,121,124,119,123,134,122,122,119,125,110,113,121,139,120,120,119,120,114,117,116,114,120,121,121,131,118
125,123,143,120,121,111,123,116,116,120,135,112,114,122,120,112,116,122,128,131,138,116,132,121,152,130,125,121,124,120,132,151,110,113,133,119,119,118,132,127,117,117,124,116,118,116,89,109,122,124,134,118,129,126,141,113,121,124,106,134,107,138,134,119,133,123,110,120,114,113,121,135,117,121,99,123,121,119,102,99,114,117,96,125,123,125,107,139,129,124,120,122,128,128,152,134,123,120,138,120,122,117,114,111,120,122,109,115,123,113,124,139,118,123,106,119,110,116,130,109,127,123,99,124,123,121,126,132
127,123,127,120,117,119,119,117,113,115,122,121,121,117,118,124,121,121,107,114,127,119,105,136,116,123,113,111,105,118,114,95,119,121,131,120,124,123,84,118,118,122,96,119,126,132,121,111,117,118,102,123,122,122,127,120,116,115,118,121,121,117,132,128,114,122,132,122,154,130,137,111,125,123,143,128,123,120,129,122,118,121,116,108,124,121,136,124,130,121,126,121,104,114,114,147,121,123,129,124,128,123,130,142,117,118,126,121,123,130,115,113,126,128,129,119,115,113,147,130,117,118,107,122,121,119,122,119
113,121,111,122,121,124,110,106,123,121,109,129,128,124,90,122,125,122,133,121,124,127,124,123,115,121,111,118,119,127,110,103,115,120,114,124,122,119,122,109,116,121,95,117,112,125,141,120,129,119,122,119,130,118,110,139,111,115,117,118,114,123,103,101,119,122,135,119,122,122,120,117,126,125,120,122,119,120,113,120,105,112,133,113,134,149,104,105,129,126,133,111,127,119,123,141,123,123,113,123,122,124,125,128,109,120,140,125,132,130,119,108,123,119,134,119,125,151,127,135,121,125,108,126,128,116,126,105
119,120,114,122,122,114,150,122,117,122,105,124,122,113,113,118,134,126,101,120,116,127,139,148,118,121,114,121,111,117,120,106,120,120,119,116,102,110,122,125,121,120,135,111,125,114,122,125,119,121,114,119,123,114,125,123,119,122,135,117,127,126,129,118,119,122,124,121,120,121,118,115,127,120,124,123,124,122,113,131,126,123,113,123,147,127,124,120,113,122,125,123,125,123,138,113,116,124,120,119,116,111,97,112,122,124,114,125,121,119,113,97,116,117,96,121,121,121,119,116,117,118,119,111,118,120,136,119
114,122,131,119,119,123,150,119,144,129,133,117,117,124,115,142,119,120,120,120,117,122,128,131,113,117,124,124,124,122,107,103,124,123,113,122,123,133,147,137,119,122,112,122,119,114,109,105,123,119,123,119,128,116,122,135,121,126,137,120,117,121,126,129,118,123,130,123,129,123,165,123,117,116,110,118,120,129,100,89,119,119,97,133,127,120,135,113,116,122,95,121,124,113,119,111,121,123,121,130,122,121,160,131,112,122,110,120,119,122,124,102,140,126,109,121,117,122,124,122,109,118,130,117,119,118,112,102
137,125,125,120,119,123,122,137,120,120,121,117,126,127,119,121,121,122,113,127,122,120,129,131,118,123,139,118,119,118,124,98,115,120,120,125,122,114,107,111,133,124,110,128,148,138,154,134,119,121,108,118,117,116,122,118,121,118,110,122,123,127,111,107,119,122,133,121,116,124,128,134,132,124,121,118,106,113,120,138,121,121,106,124,129,120,118,120,117,120,129,120,117,119,108,116,115,120,155,119,119,120,120,116,127,120,155,123,124,124,109,126,118,125,121,121,128,121,112,117,115,118,111,132,137,121,113,118
123,124,117,117,111,117,87,127,122,123,114,131,120,128,127,129,122,121,108,121,125,124,117,116,116,122,113,123,133,146,139,129,124,124,112,121,120,119,101,118,111,117,132,121,122,118,121,116,122,122,114,126,123,122,124,114,117,123,119,124,129,117,140,137,129,124,109,121,120,123,118,132,111,118,140,120,121,121,121,124,122,122,118,122,120,113,130,128,115,117,81,126,119,129,115,112,124,118,106,106,103,113,119,106,130,123,130,118,141,165,159,156,124,123,139,122,120,120,132,118,122,119,114,121,121,122,128,132
119,119,106,117,137,144,132,126,129,128,120,123,124,120,120,121,112,118,132,117,118,116,69,113,121,123,149,122,123,121,134,111,123,119,148,122,124,126,126,151,126,119,128,122,121,119,106,118,120,125,106,121,120,124,116,111,117,121,132,116,103,119,111,116,132,123,139,121,105,122,99,128,122,123,120,122,123,123,107,112,118,119,125,114,117,113,93,113,123,116,120,122,125,119,122,136,120,124,126,125,120,128,123,121,121,125,118,125,128,132,125,128,122,121,88,123,121,121,121,119,117,122,120,125,133,138,126,122
117,120,119,122,120,119,116,102,133,124,124,124,124,129,131,148,115,121,105,121,116,122,132,118,116,121,122,117,119,120,125,113,129,121,122,123,120,118,121,131,120,121,117,125,125,123,119,124,115,120,125,129,129,120,119,115,128,123,121,128,126,118,106,115,120,122,131,121,121,121,124,121,124,121,133,116,103,116,118,108,119,124,140,121,119,120,138,129,125,116,115,119,119,119,97,137,122,120,108,123,123,122,121,118,115,120,108,119,119,120,118,110,136,126,116,125,125,122,110,142,115,122,101,121,118,115,123,126
128,121,127,122,123,127,106,111,118,119,115,122,123,126,125,114,119,120,133,120,122,118,118,126,126,123,138,126,118,103,125,132,115,118,111,119,104,113,124,112,118,124,109,121,130,125,135,119,118,117,94,117,118,116,103,108,122,124,109,125,124,122,120,114,119,118,115,121,119,119,117,112,128,124,119,122,125,138,137,137,123,123,111,144,128,129,122,120,120,120,149,112,133,118,118,116,114,120,119,122,121,117,128,117,128,122,129,123,123,124,130,131,118,118,115,121,120,114,109,100,125,126,96,122,126,126,148,133
117,119,123,122,118,119,119,126,115,120,144,126,121,120,121,113,128,126,100,122,120,120,134,141,123,118,133,121,120,119,132,137,119,120,103,120,124,120,115,122,123,122,139,119,121,124,125,130,115,124,130,119,116,114,110,104,121,117,114,119,116,126,122,126,120,122,123,124,125,117,107,114,122,121,112,122,122,120,132,122,120,125,92,122,121,120,120,117,115,115,121,119,117,110,116,112,129,123,135,133,105,101,130,126,117,127,120,121,120,117,111,116,129,123,114,127,128,121,120,113,122,119,130,120,121,124,123,128
116,123,143,122,120,117,133,120,122,120,130,116,118,120,116,115,118,124,101,125,130,143,129,122,127,123,110,128,123,117,133,136,114,122,137,120,121,122,147,118,122,119,129,121,120,120,98,120,124,121,141,125,133,119,144,130,123,123,91,122,126,125,125,123,123,124,102,121,125,127,114,113,109,117,108,122,124,128,125,113,122,121,126,122,121,119,126,130,122,120,122,123,125,130,126,116,115,121,142,118,119,122,112,113,119,122,117,115,108,108,92,104,123,122,95,121,122,121,119,128,112,120,124,119,119,123,126,121
119,118,122,120,120,118,119,114,126,123,133,126,126,120,116,110,123,124,125,134,130,116,119,144,121,123,129,120,120,118,125,116,112,117,124,122,121,121,114,115,120,121,150,122,127,125,138,122,129,124,109,122,118,128,112,117,117,121,126,120,138,132,105,139,124,122,150,121,120,121,119,112,110,121,110,125,123,120,116,111,121,119,95,118,119,136,132,103,121,121,96,111,120,113,121,121,105,120,107,121,117,100,132,116,122,121,126,118,113,113,109,114,120,119,110,121,121,117,119,124,112,119,99,119,119,123,116,113
119,122,124,120,123,124,123,101,124,120,135,122,118,115,118,139,116,121,131,120,113,120,122,120,121,120,126,118,118,118,119,121,125,122,115,115,121,118,102,111,113,118,137,123,123,126,119,114,119,124,129,123,122,130,150,133,124,121,110,122,120,118,131,129,118,122,107,123,120,121,131,107,110,120,149,118,118,113,123,123,114,121,134,128,131,122,144,107,133,125,99,120,110,116,155,143,124,120,117,121,119,126,150,130,123,121,109,123,124,123,159,114,116,122,93,129,128,123,120,104,120,120,113,123,127,121,123,122
118,121,143,119,120,119,115,119,121,121,133,123,122,103,125,116,114,121,108,126,124,116,134,121,120,122,106,116,119,120,137,137,119,119,93,122,122,120,113,95,117,121,112,120,108,116,119,121,124,129,106,121,119,123,105,100,122,120,118,123,120,121,115,129,112,116,126,123,123,116,120,115,126,124,134,119,119,123,110,100,142,121,136,120,128,125,137,172,115,125,110,122,120,119,122,125,118,121,136,122,119,120,118,110,114,119,137,121,127,139,110,110,116,119,126,126,106,118,120,123,122,121,116,127,131,131,175,134
122,123,119,115,112,122,129,98,124,120,122,120,122,129,124,136,119,121,96,123,120,120,123,118,120,121,106,121,117,117,125,120,121,127,127,122,121,128,118,119,119,119,110,113,156,126,115,103,133,120,129,123,125,121,127,146,118,122,130,122,125,124,124,122,118,124,135,122,122,120,122,118,118,118,104,121,122,122,124,117,120,121,109,120,121,128,115,122,126,122,108,120,133,146,122,127,124,125,96,128,124,118,132,120,115,120,107,118,118,119,125,126,117,117,118,121,121,122,126,114,119,123,115,122,121,122,133,120
125,122,133,125,122,122,116,130,120,120,148,120,117,120,118,117,117,117,127,121,118,115,118,136,113,121,117,117,112,127,117,116,126,120,131,127,149,119,133,121,115,118,146,121,121,122,141,128,120,123,112,120,121,117,123,111,115,122,122,116,121,117,117,106,126,122,106,123,123,122,123,139,116,123,118,128,119,113,124,112,130,124,131,117,121,126,150,142,122,121,126,117,121,118,119,117,117,119,118,122,123,119,135,118,118,123,123,118,119,129,115,115,125,121,132,121,117,115,118,124,119,121,116,117,115,114,107,114
119,121,118,121,119,120,125,124,119,123,110,121,121,125,120,118,115,123,105,121,116,116,122,120,123,119,119,121,116,116,104,120,112,116,135,116,120,122,121,125,126,123,117,126,120,119,151,132,118,121,112,119,123,118,100,114,122,121,123,125,131,125,123,125,112,118,141,114,120,120,112,105,122,122,124,127,121,120,112,140,121,120,109,121,120,124,118,117,117,118,98,121,121,119,116,114,116,124,114,123,122,120,126,107,117,121,119,126,136,125,118,121,126,122,128,119,120,125,142,127,123,118,124,119,122,131,101,121
116,124,121,121,118,119,136,113,114,118,119,119,119,118,105,114,124,119,108,127,126,115,97,131,121,122,104,121,122,120,123,116,122,122,125,122,122,121,121,119,119,120,132,120,129,121,118,108,121,121,131,121,115,120,120,119,123,125,113,118,93,114,121,119,125,125,137,123,122,119,149,107,121,120,133,122,119,117,110,126,112,118,112,118,123,111,114,113,131,125,118,122,112,118,135,124,119,123,135,120,120,118,114,116,117,121,135,120,120,122,121,109,120,115,114,119,119,121,123,136,129,121,146,123,122,120,130,129
114,122,109,122,124,121,116,102,122,125,119,122,122,124,141,141,122,124,134,123,126,118,101,111,125,120,111,121,120,120,113,129,116,118,114,120,121,120,119,119,118,122,123,125,117,119,123,123,128,125,122,121,117,129,107,146,115,118,106,123,106,128,114,109,123,122,114,127,129,118,142,120,125,122,116,122,122,124,147,126,112,121,137,121,119,113,107,106,130,123,125,125,121,123,138,143,123,122,119,122,115,118,119,112,128,125,113,119,120,119,118,136,115,121,108,122,121,122,120,108,118,120,125,120,120,119,117,127
123,122,121,122,122,122,119,114,123,123,118,123,121,121,118,136,119,121,121,118,129,128,144,121,121,117,127,121,125,111,63,119,120,121,129,127,126,119,125,124,126,123,128,123,119,120,131,139,116,119,117,121,120,117,136,118,120,120,114,122,120,118,116,108,122,121,136,121,122,127,131,126,117,121,130,117,118,117,82,110,125,123,101,122,120,123,121,126,132,126,124,124,124,126,153,113,115,117,109,122,126,125,146,115,129,123,91,123,118,121,115,127,114,121,100,114,120,121,120,117,127,123,131,123,131,121,121,122
120,120,145,126,123,149,136,143,124,122,100,119,120,124,110,131,116,119,133,126,126,134,112,99,122,122,120,120,112,121,146,149,121,125,88,124,120,110,173,122,119,119,130,122,124,127,136,120,120,120,130,122,121,120,119,112,121,123,131,120,118,122,121,117,114,119,117,118,102,112,123,122,128,125,106,124,122,121,117,112,114,119,101,121,120,119,120,121,109,117,102,123,122,116,100,105,135,124,141,123,124,132,126,149,115,123,143,121,120,116,103,112,121,121,114,120,119,120,123,122,121,122,146,122,120,119,115,102
123,123,117,121,127,127,151,138,118,122,104,123,124,116,116,113,121,117,121,121,122,127,120,120,123,123,94,119,123,126,153,116,121,124,120,130,120,120,135,121,115,120,112,119,126,118,136,123,123,122,124,120,122,125,122,132,124,118,105,119,121,124,152,143,116,121,124,122,122,120,119,117,127,124,113,122,120,123,118,126,115,121,103,120,105,116,112,115,124,122,111,122,128,124,118,117,121,120,124,126,118,120,124,133,119,121,135,118,122,121,130,118,118,120,132,119,122,119,113,118,125,124,135,121,124,122,125,132
111,119,120,118,117,107,117,102,121,119,128,119,118,127,119,124,117,123,111,121,121,119,122,130,113,121,102,122,120,107,113,112,121,120,114,121,120,119,108,113,113,123,155,123,109,112,122,111,119,119,100,120,106,113,129,118,127,123,109,124,114,122,126,127,111,119,113,121,117,114,121,117,118,119,109,116,117,119,121,117,120,122,110,121,122,131,119,114,124,125,111,119,105,114,140,133,118,119,97,121,120,116,115,118,115,120,135,121,123,123,130,119,119,118,86,122,123,128,135,115,124,124,107,121,123,129,119,123
120,123,125,122,117,122,123,127,114,118,133,121,122,116,94,115,122,118,131,120,129,125,143,125,124,125,129,123,125,115,115,141,126,124,114,127,126,131,146,116,121,121,126,121,122,124,128,118,122,122,113,122,123,125,130,133,120,122,119,121,120,115,121,117,117,116,113,127,130,107,109,107,126,127,109,119,128,112,126,115,117,118,92,121,120,118,120,119,122,122,99,122,119,119,119,126,129,124,128,123,123,124,125,139,121,124,127,124,124,126,137,116,111,119,113,122,111,123,111,102,130,123,95,123,128,139,138,149
118,121,93,121,122,124,114,107,119,125,99,124,122,120,122,130,127,122,118,120,121,124,117,116,116,121,118,122,121,120,122,119,116,120,117,121,126,113,118,107,113,120,130,122,116,112,121,99,131,124,127,127,122,117,130,143,119,119,113,122,120,122,125,115,122,121,147,121,121,118,115,120,116,119,148,119,120,123,119,112,119,123,113,122,121,118,108,120,118,120,112,121,132,103,133,114,139,125,130,120,116,113,108,132,103,116,111,121,122,127,118,107,118,118,110,120,121,118,119,120,133,128,109,123,125,129,133,127
122,121,129,118,126,124,161,121,118,123,134,116,103,124,128,118,115,118,98,123,108,117,127,115,122,120,103,122,122,126,153,122,117,122,90,122,121,128,120,84,129,127,90,122,122,122,129,150,114,116,121,124,126,134,113,119,119,118,109,120,146,146,114,114,118,122,114,123,124,118,101,106,135,123,103,124,126,121,137,128,121,121,129,119,120,122,120,119,115,119,121,123,123,120,122,111,133,128,121,121,112,129,136,152,119,120,115,125,121,122,133,124,112,118,125,121,121,124,129,106,125,125,128,121,122,124,156,144
112,118,137,122,121,122,123,110,121,122,115,119,108,95,130,133,116,121,117,122,121,121,140,117,118,121,118,120,118,118,123,120,129,125,98,120,120,125,115,127,121,125,127,121,123,121,126,121,103,109,115,119,120,120,119,115,134,124,121,122,121,122,122,140,119,124,113,123,115,119,120,119,122,120,134,119,118,119,115,108,129,124,125,116,109,118,119,134,121,122,127,120,130,143,124,132,111,118,128,117,120,119,124,113,134,123,123,122,122,117,135,146,110,122,121,120,118,124,82,96,123,118,117,121,122,132,119,118
117,120,138,123,125,116,123,120,122,124,126,120,120,119,118,120,125,122,112,120,120,121,104,130,116,121,106,120,121,120,98,111,108,122,123,122,123,125,126,102,138,120,134,118,118,119,124,142,103,119,102,119,114,117,123,103,123,122,99,123,116,134,127,124,123,124,107,127,118,123,126,107,117,123,128,123,123,118,98,108,109,116,117,115,128,120,118,118,137,130,119,121,118,115,123,117,118,121,117,120,112,109,126,137,113,120,104,125,116,117,131,108,132,128,122,123,125,132,119,145,104,112,117,129,120,105,140,104
132,123,113,125,121,125,177,140,108,120,111,120,120,121,112,108,110,119,130,121,118,119,110,117,116,120,122,120,119,122,111,108,123,122,134,135,124,120,119,126,127,123,125,129,160,138,145,141,117,120,119,119,109,124,104,119,124,126,135,120,120,113,124,125,114,117,135,119,121,116,110,118,116,119,101,128,123,123,125,114,129,125,94,122,122,118,123,138,131,122,108,123,121,119,128,126,120,120,130,119,121,118,90,101,113,118,126,121,121,127,121,121,113,121,103,123,130,115,123,125,123,120,114,108,93,120,139,101
132,122,122,120,114,119,136,151,105,123,132,121,122,126,133,94,140,117,119,120,119,123,126,128,113,122,137,132,125,117,94,131,107,121,132,122,118,120,124,115,122,124,125,119,107,115,119,119,112,119,125,114,106,107,126,105,136,120,118,118,117,100,125,155,127,122,120,120,114,111,118,126,120,120,111,123,124,128,87,106,132,127,103,124,125,123,136,114,102,113,102,120,121,110,109,94,121,118,110,121,111,113,95,139,122,123,115,125,126,128,122,90,127,126,118,129,128,121,142,139,117,118,119,132,114,119,103,122
118,123,119,121,130,123,128,115,125,125,128,124,121,128,155,119,112,114,119,120,119,116,64,110,130,122,114,119,121,121,132,122,127,127,117,131,127,115,121,124,116,121,119,122,127,120,116,113,123,121,120,123,123,122,126,140,116,118,122,123,123,120,118,112,112,122,124,128,132,124,125,90,109,123,146,123,146,116,91,130,142,125,103,121,97,116,140,143,105,118,133,118,121,123,126,129,134,120,138,123,123,124,125,115,125,126,142,121,122,121,126,132,115,120,124,121,120,120,118,116,118,119,131,120,118,113,109,131
142,126,109,127,139,154,136,135,113,121,105,119,122,116,68,109,114,120,116,122,121,118,127,116,122,125,121,124,131,121,107,110,114,120,104,122,129,124,110,115,111,117,131,121,111,121,131,108,126,122,106,115,119,111,94,131,102,120,114,125,128,142,123,95,139,126,117,131,142,119,113,157,109,119,119,116,118,129,114,98,122,122,120,121,120,116,140,141,124,121,119,125,143,143,124,120,113,119,121,122,117,107,116,115,118,121,125,129,124,128,140,122,104,118,119,121,121,121,121,114,129,124,119,123,119,112,132,112
116,118,119,118,97,125,114,112,112,122,121,122,120,118,122,107,125,122,119,121,123,124,125,127,114,120,121,120,119,118,126,108,117,119,120,127,164,145,153,146,146,126,123,123,122,123,128,134,107,118,119,120,120,119,119,112,120,121,120,123,121,121,139,122,120,122,120,118,118,123,134,114,125,122,133,119,119,120,123,142,107,118,119,113,118,95,91,105,123,123,120,139,133,120,94,119,123,123,120,118,122,126,131,105,113,121,120,121,130,124,123,134,130,119,121,123,131,178,122,117,118,120,121,117,124,119,117,118
119,122,121,122,109,121,116,117,117,121,121,121,123,117,59,110,114,121,121,121,120,116,123,117,126,116,121,122,122,121,122,126,118,123,130,123,123,122,129,131,114,119,123,118,123,118,103,108,110,120,118,121,122,106,104,101,111,119,119,121,122,122,118,113,137,126,119,121,123,124,125,124,110,115,120,121,119,112,117,107,124,123,121,119,126,119,117,109,108,121,121,126,123,122,120,116,135,122,122,119,90,98,107,119,124,124,120,124,122,132,138,140,121,121,120,123,113,122,142,125,119,119,120,126,135,117,113,118
112,121,120,113,96,121,125,124,141,126,121,128,134,137,128,120,113,117,121,115,124,121,123,121,113,116,121,123,121,122,129,114,120,123,121,123,123,119,123,131,124,125,121,122,121,122,121,121,115,120,124,121,121,123,122,118,123,119,117,121,121,119,121,123,119,123,132,122,120,121,119,115,125,122,133,122,121,122,122,139,117,119,126,121,120,123,114,116,119,122,129,122,121,121,122,119,124,122,107,122,121,121,121,119,118,120,114,122,121,121,122,120,119,119,117,121,121,119,119,121,122,122,119,122,121,120,122,121
121,122,119,121,121,130,122,118,119,121,121,121,121,120,120,120,120,123,121,122,121,121,122,120,120,121,121,122,120,120,120,119,120,120,120,122,120,121,122,120,122,124,121,122,122,123,122,121,121,122,120,122,121,120,121,122,120,121,133,119,120,120,120,120,121,121,146,121,120,119,121,120,119,119,145,121,122,128,121,121,121,121,138,121,120,120,122,120,121,123,161,121,122,120,121,121,121,122,172,120,121,121,121,122,120,122,152,121,121,119,123,123,120,121,137,121,121,122,111,118,120,121,145,121,121,122,121,119
