0.9524036173250832
1.92998725663139
0.6190139073313787
0.09506797758351035
-0.12871780249095593
0.2969973379077762
0.0868873881769127
0.4031190129017402
0.2108708040334524
0.08135094027558376
-0.003910559098996508
-0.05677583228498494
-0.4583004975370918
-0.3821037952279581
0.06510283540695438
0.42099905702812523
0.691530362350035
0.8867977278864286
1.0190467296820311
0.7321807446424522
1.2305197198462414
0.8686741223425031
0.5712461656191603
0.33810812784563027
0.5327825995287785
0.32409768098991026
0.1666049246176161
0.42263087396415033
0.6301366336735179
0.7905248693733365
0.908423926746111
0.6214449063299361
0.3908940593697246
0.5829720425570906
0.7373685610796379
0.8557086326431169
0.5731966511455422
0.717985862106588
0.8318007691822965
0.9170179872571664
0.6087238385752598
0.36572721626193133
0.5519474625180021
0.7051109833882291
0.8252356950118176
0.5462717252967257
0.6954400776388895
0.8138109892094436
4.958883042824881
0.024079229875017205
5.329361401207271
1.3359434504598058
6.632294098449318
0.7657365180850233
4.238347071552587
7.3365888554192855
4.13278955085834
0.8060769513036963
7.461711585342343
3.073894346481157
-4.104026290974813
-7.368625866386847
-5.951825947434407
-5.69053576692454
-6.049175072898423
2.2875581284668094
2.531421227925761
6.619245063139802
6.309296940881794
11.012289461563842
11.138931575574885
7.28261499034665
10.74687013816614
8.558368915933935
8.209841638212659
5.312879294866675
-2.468443249985966
-2.108929956902365
-10.035272861883623
-11.854937801316824
-14.331077831648438
-15.499306822199099
-14.194811303687938
-15.459859123446167
-13.641158913084514
3.4400553005627312
5.591219488545599
2.7672990127312476
4.264005266908112
-2.185805934377113
-6.24921158822799
-4.926645422214846
-1.5675809322547694
-8.510972172161122
-0.2453564348875208
7.738364160356147
3.429631720725542
7.1750513581864075
-0.03157615675296377
-3.927107366808991
0.13610663905959441
-3.9681735406003167
1.361807204715511
-14.705788462473508
-15.29964438660881
-3.5349632028600304
4.36692787157178
2.248165630325982
-2.2461468735604955
-5.121090262733452
-9.16716789118853
-8.129412144343146
3.914429435279624
5.898960564419919
9.00328183440656
1.5358886527188567
-0.8053793659875623
-2.248052319591695
-3.6667192696731448
-2.82484787961803
-1.7002276383328234
-2.6191236359790016
-4.783698313520269
2.81138117191609
4.3093838112587015
-2.0637592757234575
2.839465637724797
2.9759284352145405
-0.33363996891544945
5.158405155190641
0.5591040142740278
0.2141577204933762
-0.389313848906747
1.3933017856561536
1.3305174387789487
2.0019920508817046
1.399141287163146
0.9073842103020443
0.8935210725795842
0.8932293936939406
0.9015287382723373
0.9145922872396991
0.5609392873772188
0.6617900157816674
0.014958445411064059
-0.10535268430801376
0.19575036280398617
0.44974270273310823
0.6538123818320051
0.8101507928176961
1.2926201807126467
0.9160421848990662
0.6055189699241788
0.7300560329665502
0.46144016560940343
-0.11349084806474613
-0.17820419948284982
0.16378692289839536
0.4461321285502158
0.2997019508091381
-0.18524061104126566
0.18124416534808746
0.10897919220496502
0.05469835461265755
0.016084046021437377
-0.37825794717943734
-0.3079258372307458
-0.23905788680782888
0.19210008806239742
0.15980163178929474
0.4954003833329179
0.747361566475744
0.9265015665493899
0.6767486525851245
0.8339912674846177
0.9464509519744734
0.6530167570639315
0.4158821153198582
6.132112367082044
2.782490337627274
1.8928997341363385
-1.0312295699088818
-5.48418513364217
-0.33332810775304367
1.6068532680317444
1.6265745470995499
1.220553933471983
-0.9761833116463188
-3.4200996020197443
0.651561266539975
1.3045798841213876
0.29734911658152074
0.21630664671493555
1.622701880338047
-2.4621407467861074
3.2085905174773774
1.7470544589230927
0.5266435484801208
2.1362303285400888
4.117298651425021
0.4354119660538016
-0.26767838208990496
-2.6131672019941106
4.116776534724868
4.227514018394294
2.725146518972311
0.7433262833472325
3.2502982381863474
1.154823581656149
-0.8668871450609522
-1.2861042527461508
-1.5280292752203142
-2.0074914485302067
-0.8348421023877777
1.2367694690375672
0.6314969566755192
-0.9863097480594942
-2.984479399638062
-1.1673736487312074
-0.7951490153787435
0.6090791313183955
-2.738676630925828
-2.0314791739000304
-2.1609766101407635
-0.7551945248176097
-3.335653231450544
-3.4919075992267743
1.978825850421397
6.228809807489938
4.2088262812733745
11.288730057675302
7.0235935320417235
4.561130824787427
-0.016120719786232307
-0.22198692245582485
-0.9922323772985282
-1.1104297835427541
-0.7281336593573735
-0.3494755785764334
-0.3718869066128725
0.012199171494234662
-0.03552234590937302
0.3058591315947446
-0.16084150071445047
0.21522101844694752
0.5149892550089908
0.742773704024222
0.5383288413147274
0.735173231221377
0.8804856712602037
0.24434687059302773
0.48124640661455464
0.3033357406998446
0.16691668014277836
0.06753104981733797
0.36810813090329253
0.23938740252007792
0.5077899441261559
0.34765853411192976
0.21894208284819042
-0.2484007649192611
0.1342133582430296
0.44455419631777954
0.31592342018245534
0.20961527248061995
0.49453273567676864
0.34588077694329666
0.5932390016192857
0.4130326493657285
0.26644829499598166
0.5214231545470043
0.7204177233736282
0.4995737146395494
0.6891443971753942
0.8335220786402407
0.9378972337771802
1.0087250912796217
0.6840601457219597
0.4247425426065664
0.22728375833654021
0.08456643207736766
0.35643406879617706
0.21051624009282888
0.10166969316285235
-0.3438111042527931
-0.3085006051733596
-0.2616966095484724
-0.211355435244092
0.20590522656099935
0.16373631523919369
0.12410479310385604
0.4579103809462459
-0.025654284754810686
-0.03966588425125912
0.32332635251511943
0.23756731519788774
0.16455048812247297
0.47406585230316356
0.34256908710931033
0.23233446303133928
-0.9617772263814304
-0.034152369224722756
-0.3929648548357541
-1.0364065161455607
-1.1504963338169651
-0.10450620943810662
1.0917420584187971
-1.6882917800102402
-2.390663221136429
-2.5138086609432193
-2.919413557599868
-3.1818805062968485
0.7224210486183704
0.8160117138730927
-0.2957984989006148
0.26218261231220447
-0.43299166134424705
0.10968711159714561
-1.3204037471551295
2.3567740436944944
-1.4302872027392803
0.3703574218611003
-0.04790821499802489
-1.1249863170322467
-0.47919502082896714
-0.32265459624624226
-0.19819187751276254
-1.578614626239319
-1.167741065231081
-1.184254080489782
1.7694512914489549
1.100270248249713
-0.22644299959577507
-0.1783300684991047
-0.8711590324433677
-1.0295575119299951
-1.4958944331006352
2.5938823052021576
0.9713476310749103
0.7375336829781213
0.5313228068435212
1.8336678209117059
3.196668843576261
2.7256890542825576
10.402336350180367
5.926443500755225
6.656823116057416
3.827012388215007
0.8401547587943434
0.04468002182789266
-0.8297504377386311
-0.28925873185181605
2.8146587445273563
1.2101130787072674
-1.1639778112352008
-2.230193474758783
-1.4897300586682587
1.0189882224472653
-1.057005158709237
-1.20615473914488
-2.7586799927088155
-1.7047773860092321
-1.1932117394236497
-0.4067601039955029
2.782316097210874
2.260705709356545
2.1204672659810964
1.5742195157672505
1.4729721014122852
1.0027868140716436
0.9949620048995398
0.6217361019484066
0.33671327322174294
0.4987071041842305
0.6408063842938494
0.3903691387197872
0.5699340822077297
0.3487806002640349
0.18145092425651854
0.061396176543241254
0.34941200832753944
0.5829329849709176
0.39480985546177394
0.2446754277486473
0.4991390459818408
0.33089516181736073
0.1983891323652699
0.09897320059810491
0.02834661914159879
0.3501930909235087
-0.13236282426861234
0.2314272569928375
0.8908463532718766
0.657902175364552
0.4585675386015555
0.29628924983842314
0.5389852928295725
0.3601463834723063
0.5873136949548976
0.7635176279014431
0.5248610644627083
0.3324909354179665
0.18462688417932738
0.4452949943876804
0.28524628378031786
-0.5758315547294468
-0.12654059725415845
-0.49076006575609255
-0.3924723087376766
0.06944837501199658
0.06631616144872625
0.05906958474291434
0.4184876215574718
0.6915973689717091
0.5198332172169366
0.37009267371443333
-0.1225326800755443
0.23411936994841356
-0.21724063969241242
-0.19569845609227143
-0.5352355988253059
-0.04914544762041839
0.34109004591189385
0.27111863138866665
0.205402918758637
1.6223405028287041
-3.5618767469835926
-1.316985732865267
7.159060385650504
-3.6389604559817137
-4.779420076516151
-3.6735026614636594
-10.057168529339375
-11.559097902869102
-0.2962157141520514
6.742316239182136
11.632178530037226
4.374359621497307
-6.7496931387130354
-7.2703550566216935
3.2732379447947135
8.995598857877358
-3.715373810361763
0.9984700615112274
7.71854872496119
1.7968084182947601
-15.493774891825689
-10.688353617882784
-12.755225347241131
0.6679331111471569
-0.9322694198669152
7.6093727677088685
13.328411683920635
6.6976544716193445
-2.133326419575539
-9.785964121244923
-22.14454647722242
-33.12937472514496
-26.180524134440482
-22.980750649525763
-20.825584040510808
-6.387335489191878
1.8748508742640198
0.5216529118364015
1.2023881352283907
-1.2031049633091317
-0.7604259789640893
-9.059231975540115
-18.883136331597534
-20.75592173314919
-17.37448416535704
-10.359879831963562
-8.10867266243316
-11.233376093439283
2.478508685108702
0.8372680475650078
7.289516573659968
3.495763299407999
-0.918742798827128
1.0236044712430827
1.0115800370888017
3.135731232737565
-3.038093860252974
-0.8811110745481225
4.555314532673144
3.207540092668324
1.6536741608264176
1.85713884578519
1.259567382580376
0.7822330803168782
0.4187328637502563
-0.212706621115029
-0.3052113309187325
0.029326109528204025
-0.0510369673832648
-0.46640241339809685
-0.40233915666865405
0.03875910368117208
0.39360612132548184
0.2971207987360868
0.21260048364058193
0.14234942478766344
0.4553748474569461
0.32757912881911655
-0.14781423170982605
0.22172536399371082
0.5168587851235157
0.7415686676206559
0.9039648241886372
0.6454319547905685
0.43093365075938717
0.998650566077114
0.6992479330591177
0.45467202475234214
-0.10454446881759949
-0.5287341538538741
-0.09660288724281518
-0.10534792336339353
-0.10249833874513922
-0.0925553255430369
-0.07892415823878132
-0.06404767651761532
-0.049567025338224845
0.33219945760536107
-0.1110984442910346
0.27578619236298174
0.5775743589105146
0.43297501339802824
0.6759716138385559
0.4864381678279296
0.6968193261018352
0.8537251328226725
0.5957179376378705
0.0168152499140517
-0.06075897767413335
0.2637812575172285
0.5271644037316886
-0.00636151079546321
0.3152390448788774
0.5726777396320801
0.03178273780667129
-0.3916722508741796
-0.7073400260668773
-0.5611925039793049
-0.42433787745724916
-1.0415963798056793
-1.1387440482960478
2.8664984167863845
3.381053047822107
3.6756217755141463
3.4392190647836367
5.019052722308213
6.9111926149866685
6.7969480352162925
4.001242884504185
3.9715633559589736
0.6369091041282418
-3.022244748406334
-6.096513834900458
-13.060961041257105
-14.112416472113583
-10.104681400730174
-7.429590614958675
-3.7551592237396396
-4.2168840246720976
-2.437937419101525
-4.070647413327373
-0.9893718544274028
-1.5971788572423429
-0.3283810678925847
-2.371315084332326
-2.9227618011766547
0.3303729807016653
-2.3270048253540363
-4.824079421627666
-1.2020213430375923
-3.8734223247478505
-4.123816471002833
-2.4286244157744337
-5.51023967599296
-5.679778200967167
-2.783307937480221
-3.076016376627436
-5.177654023548715
-4.964720705779402
-4.7536408556617005
-3.0857573726045624
0.7931839910178611
4.103863279334297
3.554018722965006
3.2931951501324273
1.840268386846831
1.7239451728079316
1.2243011977209874
-3.9813298094401777
1.23286046538417
0.21854802325086764
0.8766685334740968
1.012717331438023
-1.1145213886226313
3.5014688668772793
0.8231928312692185
-4.648499406995806
-6.633761846264385
-6.889581175235031
-3.5827696770118154
-1.2613296491223625
-2.7753643068019396
-3.6187230990694808
1.63808384818693
3.8572001165651244
1.3728661719589015
0.0354869778291067
0.7934272159722571
0.2617349590906918
0.5631914553330857
0.41952551904136753
0.6641800264880211
0.4766301434497498
0.32035656247137956
0.19624489661736094
-0.26638747632622417
0.12062957287080905
0.4348293416140869
0.30940745210404463
0.2056428464138189
-0.24489086493767132
0.14805621652891438
0.09513421625634837
0.05416491870905087
0.023996752149654615
0.003044506963580831
0.35826145403338594
0.6335042812231741
0.46770257291949396
0.3258682552131025
0.5791206501099565
0.4037571455136406
0.26096713476956024
0.5187729224449282
0.3510789810671829
0.2173164275866339
0.1156033619554143
0.4108915035331827
0.6441187202607581
0.8196348968616027
0.5760853316504051
0.3765561464264928
0.5893575612109837
0.3876434218845412
0.2294982141124615
0.48011042639516066
0.3109470206162044
-0.1892408196524566
0.5366235298296637
0.7424583039115824
0.8928676594608237
0.9963353750539923
0.32457455866372686
0.5326109165448394
0.7010836392325144
0.8311932538775072
0.5580595313529224
0.7099719952976677
0.8289206649639629
0.9176077427747432
0.24277103097495234
-0.2820073237715691
-0.30166909486825216
0.07857364228920982
0.023151970726549995
-0.013676036102739505
-0.035839428871575194
-0.41567014055614016
-0.7018905531616838
-0.16889920775378364
-0.10822557083391485
-0.06132238190656635
0.34184691849060855
0.27998065607744693
-0.8873811637160673
-0.31746619382728547
1.621753704875088
3.851801805138961
2.560312318763073
2.9368369399519256
6.129051043219911
4.844499165748613
3.7280783017255903
0.22570233151634023
1.2068024985558536
1.6794324093524586
2.0827361834026377
-0.17057520795888115
1.7894733902630975
6.310917709299291
4.614697432111118
8.338796408604402
5.2407028928923705
-0.9773407850961595
-4.672626317919234
-6.611970731501382
-6.023704969914356
-6.4386791018018235
-2.162111884437759
-1.3150824738758278
-3.9940275827400784
2.028065190974745
0.43400586747526937
-2.030709561052598
7.816406811092787
10.605431369683211
4.36588826299135
1.4974516050756659
7.729551451674403
7.397849823608842
9.947410585604283
6.269233182075393
0.3406250360888059
-1.6429995239260329
1.7898120327913905
0.9224727044966491
-0.06707209595967056
9.9259910570551
3.6607448077454414
2.6755401986159963
6.344672017043301
6.24035569552885
4.601201441553416
2.174187650856866
6.946672633232713
2.567843895104674
2.4408456749700207
4.617215438079441
2.2838735862825175
1.9451717811025566
-1.9511618105995205
-0.09866084019570032
1.4759638056764417
-1.3055000574537174
-0.8536749869841713
-0.42114741123324906
-0.03516919613128733
0.29075377289721976
0.1841804611234581
0.10226516315299383
0.4111116968566134
0.28419472811404045
0.18148954174982232
0.47091634086957146
0.6956739231448663
0.8617467717366222
0.97757578323747
1.0524819481517655
0.7269149818807255
0.4636228789035713
-0.10812059735771956
0.19743798147812552
0.45410906950770075
0.29083665943281123
0.1646520481505155
0.44059379168989193
0.29056107047045665
0.17275675328509058
0.4533451300007326
0.6739190200191059
0.10170661003163273
-0.3470753067277633
-0.6822757803261479
-0.9191372933316987
-0.706409892098505
-0.14729790197142878
-0.07185028109520464
-0.01851028134950977
0.01663473091914871
0.03750054230298844
0.41638008888108585
0.701943608790055
0.5372196312725859
0.7592284931854771
0.9185162925292536
0.6568648840084721
0.4394893971951264
0.26733753097172364
0.13741432645471885
0.4131600248728124
0.6338695833481331
0.43361124961623243
0.6414190153333816
0.8011020497163286
0.9177156255816217
