122,121,121,122,121,122,121,120,121,122,121,121,121,121,121,120,120,122,121,122,121,121,122,120,121,122,121,122,121,121,121,120,120,121,121,122,121,120,121,120,121,123,122,121,121,121,121,120,121,121,122,121,120,120,121,120,120,121,120,122,121,122,122,121,121,122,121,122,121,122,121,120,120,122,121,121,121,121,121,120,121,122,121,121,121,121,121,121,121,122,122,123,122,121,122,121,121,121,121,122,121,121,121,120,121,120,121,122,121,122,122,120,119,121,121,122,121,121,121,119,121,122,120,122,121,121,122,120
121,121,121,121,121,121,121,120,120,123,121,122,121,121,121,122,120,121,121,122,122,121,121,120,120,121,120,122,121,121,122,120,121,122,122,122,122,121,121,121,120,120,121,122,121,120,121,120,120,122,121,122,122,121,120,119,120,121,121,122,121,121,122,120,120,121,121,121,121,121,121,120,120,121,121,122,121,121,121,121,121,121,121,122,122,121,120,120,120,121,120,121,121,122,121,121,122,121,122,122,121,120,121,120,121,122,122,122,121,121,122,121,120,122,121,121,120,121,121,120,120,122,121,122,121,121,122,120
121,121,120,121,121,121,122,121,120,120,121,122,121,121,122,120,119,121,121,122,122,121,121,120,119,121,121,122,122,121,121,118,122,121,121,122,121,120,121,120,120,120,120,122,121,122,122,121,122,122,121,122,121,121,121,120,120,122,122,122,121,121,121,120,121,122,121,121,121,121,121,121,120,120,120,122,121,121,121,120,120,121,120,121,121,121,121,121,123,122,122,122,120,120,121,120,120,122,122,122,121,121,122,121,120,120,119,121,121,121,122,120,120,122,121,122,121,121,120,120,121,119,120,121,121,122,121,120
121,122,121,122,122,121,122,121,121,122,120,121,121,121,122,120,119,121,121,122,121,121,122,120,121,118,121,122,122,121,121,119,121,122,121,122,121,121,121,120,121,122,121,122,120,121,121,120,120,121,121,122,121,122,122,120,121,122,122,122,120,120,121,120,121,122,121,122,121,120,120,120,121,122,121,121,121,121,122,120,120,119,120,122,122,122,121,120,120,122,121,122,120,121,121,120,122,122,122,123,121,121,122,121,121,121,120,121,121,121,121,121,120,122,121,123,121,120,121,120,120,122,121,121,120,121,121,120
120,121,121,121,121,121,121,120,122,122,120,121,121,120,121,121,120,120,120,122,121,121,121,120,119,122,122,122,122,121,121,120,122,123,121,121,121,121,121,120,119,119,120,121,121,122,124,123,120,121,120,121,121,121,121,120,121,123,121,121,121,121,122,121,122,120,120,121,121,121,121,120,120,122,122,123,121,121,122,121,121,122,122,122,120,121,121,120,121,121,120,121,121,121,122,120,120,121,120,121,121,121,121,121,121,122,120,121,121,120,121,120,121,121,121,122,121,122,121,120,120,122,121,122,121,121,121,119
120,121,120,121,121,121,121,121,121,122,121,121,121,121,122,121,121,121,122,122,122,122,121,121,120,122,120,122,120,120,121,120,120,120,121,122,121,121,120,120,120,121,121,122,121,121,121,119,121,122,121,122,122,121,121,120,120,121,121,122,121,120,121,120,120,123,121,122,121,121,120,120,120,119,121,122,121,120,121,121,121,123,121,122,122,121,121,120,119,120,121,122,121,122,122,120,120,122,121,122,121,120,120,119,121,122,121,121,121,121,121,121,119,121,120,122,121,122,121,120,123,123,122,122,121,121,121,121
120,121,121,122,121,120,120,120,121,121,121,122,121,121,121,120,121,122,121,122,121,121,121,120,120,120,120,122,121,122,122,120,121,121,121,122,121,121,121,121,120,121,121,121,121,121,121,120,121,122,121,121,121,121,121,121,120,121,120,122,121,121,122,122,120,122,121,122,122,122,122,120,120,121,120,121,121,121,121,120,122,121,121,122,121,122,121,121,120,121,121,121,121,121,122,120,121,122,121,122,121,121,122,121,120,121,122,122,121,120,121,120,119,122,119,121,121,121,121,121,120,118,119,121,121,121,121,120
120,121,121,122,121,121,121,120,121,123,122,122,122,122,122,121,122,122,121,122,121,121,122,121,120,122,121,122,122,121,121,120,121,121,120,121,121,122,121,120,120,122,121,122,122,121,121,121,119,122,122,122,121,120,121,121,121,121,121,122,121,121,120,118,119,120,121,122,121,121,122,122,122,122,123,122,121,120,120,120,119,121,120,122,121,120,121,120,122,121,121,122,121,120,121,121,119,121,120,122,121,121,121,121,121,123,121,122,121,121,120,118,121,121,121,122,122,122,122,121,120,120,120,122,121,121,121,120
120,121,121,121,121,121,121,120,121,122,120,122,122,121,121,120,121,121,121,121,121,121,121,122,120,121,121,122,121,121,121,120,119,121,121,122,121,121,121,119,120,123,121,122,121,121,121,121,122,120,122,122,121,120,121,120,120,123,121,122,121,121,122,121,121,123,121,122,120,121,121,120,120,121,121,122,120,120,121,120,121,122,121,121,121,121,122,121,122,122,121,122,122,122,123,122,120,122,120,121,121,121,121,120,122,122,121,121,120,120,121,120,120,120,120,121,121,121,121,121,121,122,122,122,121,120,121,120
121,122,121,121,120,121,121,121,121,122,121,121,121,121,122,121,120,122,121,121,121,121,122,120,121,122,121,122,121,121,121,120,121,122,122,122,122,121,122,121,120,121,120,121,120,121,121,120,121,121,121,121,121,121,122,121,121,121,121,122,121,121,122,120,120,122,121,122,121,121,121,122,120,122,121,122,121,120,121,119,122,118,120,121,121,121,121,121,121,122,121,121,120,121,122,121,120,121,120,122,121,121,122,120,120,121,120,121,121,121,121,120,120,121,121,122,122,121,121,120,120,122,121,122,122,121,121,120
121,121,121,122,121,121,122,121,121,121,122,122,121,121,121,121,121,122,120,122,121,120,121,120,120,121,121,121,120,121,121,120,120,122,122,122,121,120,121,120,121,122,121,121,121,121,122,121,122,121,120,121,121,121,122,120,120,122,121,121,121,121,122,120,121,122,121,122,121,120,121,121,119,120,121,122,120,120,120,120,121,122,121,122,122,121,121,120,121,122,121,122,121,121,121,120,121,121,121,122,122,120,121,120,120,122,121,122,122,121,121,120,121,123,122,121,121,121,121,121,120,120,121,122,122,121,121,121
121,122,121,122,121,120,121,118,121,121,121,121,121,121,121,121,120,121,121,122,122,121,121,120,122,121,122,121,121,121,122,121,120,122,120,121,121,121,121,121,121,122,120,122,122,121,122,120,119,120,121,122,121,120,121,119,120,122,122,122,121,121,122,121,122,122,121,121,121,121,121,121,121,121,120,121,121,121,122,121,120,119,119,121,121,121,120,118,120,123,121,122,122,121,121,120,120,121,121,121,121,121,122,120,120,122,121,121,120,121,121,120,121,122,121,122,121,120,121,120,120,121,120,122,121,121,122,120
120,122,122,122,122,121,121,120,120,121,121,122,122,121,121,120,121,122,122,121,120,120,121,120,121,122,121,122,122,121,121,120,121,121,120,121,121,121,121,121,121,121,120,121,121,121,122,120,120,121,121,122,122,121,121,121,120,122,121,122,122,121,121,119,120,122,121,122,121,120,121,120,120,122,121,123,121,120,121,120,120,121,121,121,121,121,122,121,119,121,121,121,121,121,121,120,120,121,121,122,121,121,121,120,120,122,122,122,122,121,121,120,120,122,121,122,121,121,122,120,118,119,120,122,121,121,121,120
122,118,120,122,121,120,121,120,121,122,120,121,121,121,122,121,121,122,122,122,121,122,121,120,120,121,120,121,121,121,121,120,120,122,120,122,121,121,120,119,121,121,121,121,121,121,121,120,122,122,121,122,122,122,122,120,120,122,121,122,121,121,121,120,121,122,121,122,121,121,120,120,121,122,120,121,121,121,121,121,120,122,121,123,121,121,121,120,121,123,121,121,121,121,121,120,119,120,121,122,121,120,121,120,121,121,121,122,121,121,121,120,121,123,121,122,120,121,121,121,121,123,122,122,121,121,121,121
121,122,121,121,121,121,121,121,121,122,121,122,121,120,121,120,120,121,121,121,121,121,122,121,120,122,121,121,122,121,121,119,120,122,121,121,121,121,122,121,121,120,121,121,121,121,121,120,119,121,120,122,121,121,121,120,122,123,121,121,121,121,121,121,119,121,121,122,122,121,121,120,120,122,121,122,121,120,120,120,121,122,121,122,121,120,121,120,120,122,121,121,120,121,121,119,123,123,121,122,122,122,121,122,120,121,121,122,121,120,120,119,121,123,122,121,121,121,123,123,121,120,120,121,121,121,121,121
121,122,121,121,121,121,121,121,120,121,121,122,121,121,121,120,121,123,121,121,121,121,122,120,119,120,121,122,121,121,121,120,119,122,121,122,121,120,121,121,123,121,121,122,122,121,121,120,119,122,121,122,122,121,121,121,120,122,122,122,121,121,121,119,122,121,120,122,121,121,122,122,120,122,122,122,122,121,121,121,120,121,121,122,121,121,122,120,121,122,121,121,120,121,121,120,121,122,122,122,121,120,121,121,120,122,121,122,121,121,122,120,121,120,120,121,121,121,122,121,120,120,120,122,121,121,120,120
120,123,121,122,121,120,121,120,120,123,122,122,122,121,121,120,120,119,120,121,121,121,122,121,120,122,121,121,120,121,121,120,124,122,121,122,121,121,121,121,118,120,121,121,121,121,122,120,120,122,121,122,122,122,121,121,120,120,120,122,121,121,121,120,120,122,122,121,121,121,122,121,120,122,121,122,122,121,121,120,120,121,120,121,121,121,120,119,120,120,121,122,121,121,123,121,121,121,121,122,121,121,120,120,120,122,121,122,121,121,122,118,120,122,121,121,121,121,122,122,120,121,121,122,122,121,121,121
120,122,120,121,121,121,121,120,120,120,121,122,121,121,122,121,120,121,120,121,121,121,122,120,120,122,121,122,121,121,121,120,120,121,121,122,121,121,122,120,121,121,122,122,121,120,121,120,120,121,121,122,121,122,121,120,121,121,121,122,121,121,121,120,120,121,121,122,121,121,121,120,120,121,121,122,121,120,121,120,120,121,121,122,121,121,121,120,122,122,121,121,120,121,121,120,120,122,122,122,122,121,121,121,121,122,122,122,120,121,121,120,121,122,120,121,121,121,121,120,120,119,120,122,121,121,121,120
120,120,120,121,121,121,121,120,121,120,121,122,121,121,121,121,119,122,121,122,122,120,121,119,121,121,121,122,122,120,120,120,121,122,121,121,121,121,122,121,121,122,120,121,121,121,121,121,121,122,121,121,121,121,122,120,121,121,121,121,120,121,121,121,120,121,121,122,122,121,122,120,121,122,121,122,121,122,121,121,120,122,122,122,120,121,121,120,120,121,121,122,121,122,122,120,120,122,120,121,121,120,122,121,122,122,122,123,122,121,121,119,120,122,121,122,120,121,121,121,119,121,121,122,121,121,121,120
120,121,121,122,121,121,121,120,121,122,121,122,121,121,121,120,122,122,122,122,121,121,122,121,119,120,122,121,120,120,121,120,122,122,121,121,121,121,121,121,120,121,120,122,121,122,121,119,120,122,121,122,121,121,121,119,121,122,121,121,120,121,121,120,119,120,121,122,122,121,121,120,121,122,122,122,121,120,121,120,120,122,120,121,121,121,122,122,120,121,121,122,121,121,122,120,121,122,120,121,121,121,122,121,121,121,120,121,121,121,121,120,121,123,122,122,120,121,121,121,121,121,122,123,121,121,122,121
120,121,121,121,122,122,122,120,120,121,120,122,121,120,121,120,119,120,121,122,122,121,121,120,121,123,122,122,122,121,121,120,121,121,120,122,121,122,121,118,119,120,120,121,121,121,121,121,121,121,120,121,121,121,122,121,121,121,120,122,121,121,122,121,121,122,122,122,121,121,121,120,121,122,121,122,121,120,121,120,120,121,121,121,120,121,121,121,121,121,121,122,121,121,121,120,121,122,122,122,121,121,121,121,120,121,121,122,122,122,121,120,120,120,121,122,121,122,121,119,120,121,120,122,121,121,122,120
122,121,121,122,122,121,121,120,119,120,121,122,122,121,121,120,120,122,121,122,121,121,122,120,119,119,120,122,121,122,121,120,121,122,120,121,121,121,121,120,121,122,121,122,122,121,121,120,122,121,121,122,121,121,122,122,120,121,120,122,121,122,122,120,119,121,121,122,121,121,121,120,121,121,122,122,121,120,121,121,120,122,121,122,122,121,121,120,120,121,121,122,121,120,120,119,121,120,121,122,122,122,121,120,121,122,121,122,122,121,121,120,120,120,121,122,121,121,122,120,119,121,120,121,121,121,121,119
122,121,122,122,121,120,121,121,120,122,121,122,121,121,121,121,120,121,121,122,121,121,121,120,120,121,121,122,122,121,121,119,121,122,120,121,121,121,121,121,120,120,121,122,121,121,121,121,121,121,120,121,121,121,121,121,120,122,121,122,121,121,122,120,120,122,121,122,121,122,121,119,121,123,121,121,121,121,121,120,123,122,121,122,122,121,122,121,120,121,121,122,121,121,121,120,120,120,120,122,121,121,121,118,120,122,122,122,121,120,121,121,120,119,120,122,121,121,122,120,121,123,122,122,121,121,122,121
123,123,121,122,121,120,120,120,119,120,121,122,121,122,121,119,121,121,122,122,122,121,121,120,121,122,121,121,121,121,121,120,119,120,121,122,121,121,120,120,121,122,121,121,120,120,121,120,121,121,120,121,121,121,121,120,121,121,120,122,121,121,121,121,119,121,121,122,121,121,121,120,121,123,121,121,121,121,123,123,120,121,122,122,122,120,120,118,121,122,121,122,121,120,121,120,121,122,122,122,121,121,121,121,120,121,121,122,121,122,122,120,120,122,122,122,120,121,121,121,120,122,122,122,121,121,121,120
121,122,121,121,121,121,122,120,119,120,120,121,121,121,122,120,122,122,121,122,121,122,122,120,120,120,121,122,121,121,121,119,120,121,121,122,122,121,121,120,121,123,121,123,122,121,122,121,118,120,120,122,121,122,122,120,121,120,120,121,121,121,121,120,122,122,121,122,121,120,120,120,122,122,121,122,120,121,121,121,120,121,122,122,121,121,121,120,120,122,122,121,121,120,121,120,121,122,121,122,121,120,121,120,120,121,121,122,121,120,121,120,120,122,120,122,121,121,121,119,121,121,122,122,121,121,121,122
121,122,120,121,121,121,122,121,120,122,122,122,121,121,121,119,121,122,120,121,120,120,120,119,121,122,120,121,121,121,123,122,121,123,121,121,121,121,121,120,120,122,121,122,121,121,121,121,121,123,122,122,121,122,122,121,120,120,121,122,122,122,121,120,119,119,120,122,121,120,121,120,121,120,120,121,121,121,121,121,120,122,121,122,121,122,121,120,121,123,122,122,121,121,122,121,121,122,121,121,121,121,121,120,120,121,121,122,122,121,121,120,120,120,121,122,121,121,120,119,121,121,121,121,121,121,122,121
120,122,121,122,120,121,121,121,121,122,122,122,121,120,121,120,120,121,121,121,121,121,122,121,121,122,121,123,122,120,121,120,121,122,122,122,121,121,121,120,120,121,120,121,121,121,122,121,120,121,121,122,122,121,120,119,122,121,121,121,121,121,122,121,119,121,121,122,121,121,121,120,120,122,121,122,121,121,121,121,124,122,121,121,121,121,122,121,120,120,120,122,121,121,122,120,121,122,121,122,122,122,121,121,120,122,120,122,121,121,122,120,120,120,121,121,121,121,121,121,121,122,121,121,121,121,122,120
121,122,121,122,121,121,121,121,121,121,120,121,120,121,121,121,120,122,121,122,122,121,120,119,121,122,121,122,122,121,121,121,121,121,121,121,120,121,121,120,120,122,121,122,122,122,122,120,120,121,121,122,122,121,121,120,121,121,122,122,121,121,121,121,121,122,121,121,121,121,121,120,120,120,120,122,122,122,122,120,121,121,120,121,121,121,122,121,120,121,121,121,121,121,122,120,120,121,121,122,120,121,121,120,121,121,120,122,121,121,121,121,120,120,121,121,122,121,121,120,119,121,121,122,122,121,121,120
119,122,120,122,121,121,122,120,120,121,122,122,121,121,121,120,122,121,121,122,120,120,121,120,119,121,120,122,121,122,121,120,120,122,121,122,121,121,121,120,120,121,121,122,122,121,122,120,121,121,121,122,122,122,121,120,121,122,122,122,120,121,121,120,121,122,121,121,121,121,121,120,121,122,120,121,121,121,121,121,121,121,121,122,121,121,121,120,121,122,121,122,121,122,121,120,121,122,121,122,121,120,121,119,121,122,121,122,121,121,121,121,120,121,120,121,121,121,122,121,121,120,121,122,122,121,122,121
122,122,121,122,121,121,120,120,120,122,121,122,122,121,122,121,121,121,121,122,121,121,120,119,121,121,120,122,121,122,121,119,120,121,120,122,121,121,121,120,121,122,121,121,121,120,121,121,121,121,121,121,121,121,121,121,121,121,121,121,121,121,121,121,121,122,121,122,121,121,122,121,119,121,121,122,121,121,122,121,121,121,121,121,120,120,121,120,122,122,121,122,122,121,120,120,120,123,122,123,122,121,122,121,121,122,121,122,121,121,121,120,120,121,121,122,121,121,121,120,122,121,121,122,121,122,121,120
120,121,120,121,121,121,121,121,120,122,121,122,121,122,121,120,121,122,121,121,120,121,121,120,121,122,121,121,120,121,121,121,120,121,121,122,121,121,121,118,121,121,121,122,122,122,121,120,120,122,121,121,121,121,121,120,121,122,120,121,121,121,121,120,120,122,121,122,121,120,120,119,120,121,121,122,122,121,122,121,122,121,120,121,121,121,122,121,121,123,121,122,121,120,121,120,119,122,122,122,121,120,121,120,122,121,121,122,121,121,121,120,118,122,121,122,122,121,121,120,123,121,120,121,121,121,122,120
119,121,122,121,121,121,121,120,121,122,120,122,122,121,121,120,120,120,122,123,121,121,122,121,119,122,121,122,122,121,121,120,121,120,121,122,122,121,121,120,120,121,120,122,121,121,122,121,121,122,120,121,121,121,122,121,121,122,122,122,121,122,122,121,119,119,120,122,121,121,121,121,120,122,121,122,121,121,121,120,122,121,121,122,121,121,122,120,121,122,122,122,122,121,121,121,119,120,120,122,121,121,122,122,121,122,120,121,121,121,120,119,122,121,121,122,121,121,120,120,119,122,122,122,121,120,121,120
120,122,121,122,122,120,120,119,121,121,121,122,121,121,122,121,121,122,122,122,120,120,121,121,120,122,120,122,122,122,121,120,120,119,120,122,122,121,121,120,121,122,120,121,121,121,121,121,120,122,122,123,121,121,120,120,121,121,122,122,121,121,121,120,122,122,122,122,121,121,122,121,119,120,121,122,122,121,121,120,120,121,121,122,121,122,122,120,120,121,121,122,122,120,120,120,119,120,121,121,121,121,122,121,120,123,122,122,122,121,120,119,122,120,121,122,122,121,121,120,118,122,121,121,121,121,122,120
120,120,121,122,121,122,121,120,120,122,121,122,121,120,120,120,119,120,121,122,121,121,121,120,122,121,121,122,122,121,121,120,121,123,121,121,121,121,121,121,120,122,121,122,122,122,121,119,119,120,120,122,121,121,121,120,120,123,121,122,121,120,121,120,120,121,121,122,121,121,121,119,120,121,121,121,120,121,121,121,121,122,121,121,121,121,121,121,121,122,121,122,121,120,121,121,120,121,122,122,120,120,121,120,120,121,121,121,120,121,121,121,121,121,121,122,121,120,121,120,121,122,121,122,122,121,121,120
121,122,121,121,120,121,121,120,121,122,121,121,121,121,121,120,121,123,121,122,122,122,122,121,121,121,120,121,121,121,121,121,120,120,121,122,121,122,120,120,121,122,120,121,121,121,122,120,120,121,121,122,122,121,121,121,121,122,121,122,122,122,122,120,122,119,121,122,121,121,122,121,121,123,120,121,121,120,121,122,121,121,121,121,121,121,121,120,120,122,122,122,121,121,122,121,120,120,121,122,121,121,121,119,121,122,121,122,121,121,122,121,121,122,121,122,121,120,121,120,121,119,120,121,121,121,122,120
120,122,120,121,121,121,121,121,120,123,121,121,121,121,121,121,121,122,121,122,121,121,121,119,120,120,120,121,121,121,122,121,120,122,121,122,121,121,121,120,121,122,121,121,121,121,121,121,120,122,121,122,121,120,121,120,122,121,121,122,121,120,120,120,120,122,122,123,122,121,122,121,120,122,121,122,121,121,121,120,121,121,121,122,121,120,121,121,122,122,121,121,121,121,121,120,120,121,121,121,121,121,121,121,121,121,121,121,121,121,122,121,119,121,120,122,122,121,121,118,120,122,120,122,121,121,121,121
120,124,122,121,121,121,121,120,121,119,120,121,121,121,122,120,120,121,121,122,121,122,121,120,121,121,121,122,121,122,122,120,121,121,120,121,121,121,121,121,120,121,121,121,120,121,121,120,120,122,121,122,122,121,121,119,120,121,121,122,121,121,121,120,122,121,120,121,121,121,121,120,122,123,121,122,121,121,122,121,120,121,121,122,121,121,121,119,119,121,121,122,121,122,121,120,121,121,121,122,121,121,121,120,119,120,120,121,121,121,122,121,120,122,121,122,121,121,122,120,120,120,121,122,122,121,120,121
120,122,121,121,121,121,121,120,121,122,121,122,122,121,121,120,120,122,121,122,122,121,122,121,122,122,122,122,121,120,121,120,120,120,121,121,121,122,121,119,120,122,121,122,122,121,121,118,121,122,122,122,120,120,121,121,121,123,122,122,121,120,121,121,120,121,120,122,121,121,122,120,121,121,121,122,121,120,121,120,121,122,122,122,122,122,122,120,122,122,120,122,122,121,122,120,119,121,120,122,121,121,121,120,120,122,121,122,121,121,122,121,121,122,120,121,121,121,121,120,120,121,122,122,122,121,121,121
121,122,121,122,122,121,120,119,120,122,121,121,121,121,121,120,121,120,120,121,121,121,121,121,121,122,121,122,122,121,121,120,120,120,121,122,121,121,121,119,120,121,121,121,121,121,122,121,120,121,120,122,122,121,121,120,120,121,121,122,121,120,121,121,120,122,121,122,122,121,121,120,120,121,121,122,121,120,120,119,122,122,121,121,121,121,121,121,120,121,121,122,121,121,121,119,122,123,122,122,122,122,122,121,120,120,121,122,121,121,121,121,121,122,120,121,121,121,121,121,120,123,121,121,120,120,121,120
121,120,120,121,121,121,122,120,121,121,121,122,121,121,122,120,119,122,121,122,121,120,121,120,120,121,121,121,121,121,121,120,120,121,121,122,121,121,121,121,121,121,121,122,122,121,121,119,120,121,121,122,122,120,121,121,120,121,121,122,121,121,122,120,121,122,121,121,120,121,121,120,121,122,121,121,121,121,122,120,120,121,120,121,121,121,121,120,120,121,121,121,120,121,121,120,121,121,121,122,121,120,121,121,121,120,120,122,121,120,120,120,121,122,120,121,121,121,121,120,121,121,121,121,121,121,121,121
120,123,121,121,121,121,122,121,121,122,121,121,121,121,121,121,121,122,121,121,121,121,122,121,121,121,121,122,121,120,121,120,120,123,121,121,121,121,121,119,120,120,121,122,121,121,121,121,121,123,121,122,122,121,121,122,121,122,121,121,121,121,121,120,121,122,121,121,121,121,122,121,121,122,121,122,121,121,122,120,121,120,120,121,121,121,122,120,120,123,121,122,120,120,121,121,120,121,121,122,122,121,121,120,121,123,122,122,121,120,121,120,120,120,121,123,122,121,122,121,123,121,121,122,121,121,122,121
120,122,121,122,121,121,122,121,120,122,121,121,121,121,121,121,121,121,120,121,121,121,122,120,120,121,121,122,121,122,122,120,120,122,121,122,121,120,121,120,121,121,120,121,120,120,121,120,121,121,121,122,121,121,122,120,119,120,121,122,121,121,121,120,121,122,121,122,121,121,120,119,120,121,121,122,121,121,121,120,120,120,120,122,121,121,122,119,120,122,121,121,121,121,121,121,121,122,122,122,121,121,121,120,119,120,121,122,121,122,121,120,120,121,120,122,121,121,122,122,121,121,120,122,121,121,121,120
121,122,121,122,121,121,122,122,120,122,121,122,120,121,121,120,120,121,121,122,121,121,121,120,120,120,120,122,121,121,122,120,119,120,120,122,121,121,121,121,122,122,121,122,121,120,121,120,120,121,121,121,120,121,121,120,121,121,121,122,121,121,122,120,121,122,120,122,121,121,122,120,120,123,121,122,122,121,121,120,121,122,121,121,120,120,121,120,121,122,121,122,121,121,121,120,120,121,120,121,121,121,122,121,120,122,121,122,121,121,121,120,121,121,121,121,121,121,121,121,121,121,121,122,121,121,121,121
120,121,121,121,122,122,121,119,119,120,120,122,121,122,121,120,120,121,121,122,121,121,121,119,120,122,122,122,121,120,121,120,121,122,121,122,121,121,121,122,121,123,122,122,121,121,121,120,120,119,120,121,122,121,121,119,120,121,120,122,121,121,122,122,120,122,121,121,121,121,121,120,120,122,121,121,121,121,122,121,121,121,121,122,122,122,122,121,119,123,122,122,122,121,121,117,121,119,120,122,121,122,121,120,121,121,120,122,122,121,121,120,121,122,122,122,120,121,121,121,121,122,122,122,121,122,122,120
120,122,120,121,121,121,121,120,121,121,121,122,121,120,120,121,122,123,120,121,121,121,121,120,121,120,121,122,122,122,122,121,121,122,121,122,121,121,122,120,121,121,120,122,121,122,122,121,121,122,121,122,121,120,121,120,120,122,120,121,121,121,122,120,120,121,121,123,121,120,121,120,120,121,120,122,121,121,121,120,122,122,121,122,121,121,121,120,120,121,120,122,121,121,122,121,122,121,121,122,121,120,120,120,120,121,121,121,121,121,121,120,121,123,121,121,121,121,122,121,122,122,121,122,121,121,122,121
121,122,121,122,121,121,122,121,121,122,122,122,121,120,121,120,121,122,120,121,121,121,121,121,120,121,122,122,121,121,121,120,121,123,121,121,120,121,121,121,121,121,121,122,122,121,120,120,120,122,122,122,121,120,121,120,120,122,121,122,122,121,121,120,120,120,121,121,122,121,121,118,121,121,120,121,121,121,122,121,121,122,122,122,120,120,121,120,121,123,120,121,121,121,121,120,120,119,121,122,121,122,121,119,122,123,122,123,121,121,121,121,121,121,120,122,122,122,121,121,119,121,121,122,122,121,121,120
120,122,122,122,121,121,120,120,121,122,121,122,122,122,122,122,120,121,120,121,121,121,121,120,122,121,120,121,121,121,121,122,119,121,120,121,121,122,122,119,120,122,121,122,121,121,121,120,121,121,121,122,122,121,121,121,120,121,120,122,121,121,121,121,121,121,121,122,121,121,121,120,121,122,121,122,121,120,121,120,120,121,122,122,121,122,122,121,120,122,121,122,121,121,121,120,121,121,121,122,122,120,121,120,121,122,121,122,121,121,120,120,119,121,121,122,122,121,121,120,120,120,121,122,121,121,121,120
119,121,121,122,121,121,121,119,122,121,121,122,121,121,122,121,121,121,121,122,122,122,122,120,121,123,121,123,121,120,121,121,120,119,120,122,121,121,121,120,120,120,120,121,121,121,121,119,120,121,120,122,121,121,122,121,123,123,122,122,121,121,122,121,120,121,120,121,121,121,121,121,120,121,121,122,121,121,122,120,121,122,121,121,121,121,121,121,120,121,121,122,121,120,120,120,121,121,120,121,121,121,121,120,120,121,121,121,121,121,121,119,120,122,121,122,121,122,122,121,120,122,120,122,121,121,121,121
121,121,121,122,121,121,121,121,119,121,121,122,121,121,121,120,120,123,121,121,120,121,121,121,122,120,120,122,121,121,122,120,121,122,120,121,121,121,122,121,121,123,122,121,121,121,121,121,119,121,122,122,121,121,121,119,120,121,121,122,121,121,121,120,120,122,121,122,122,121,120,120,121,122,121,122,120,120,121,120,120,122,122,122,120,120,121,120,121,122,121,121,121,122,122,121,120,121,121,122,120,121,121,121,121,121,121,122,121,120,120,119,120,120,120,121,120,121,122,121,121,123,122,122,121,121,121,119
120,123,120,121,121,121,121,121,121,122,122,122,122,121,121,121,121,123,122,122,120,120,121,121,120,123,121,121,121,121,120,120,122,119,119,121,121,121,123,123,119,122,121,121,121,121,121,119,120,120,120,122,121,121,121,120,122,123,121,121,120,121,121,121,120,120,120,121,121,121,121,121,120,122,121,121,120,121,122,120,121,121,121,122,122,121,121,121,122,122,121,121,121,121,122,120,120,122,120,121,121,121,121,121,121,122,121,122,121,121,121,120,121,122,121,121,121,121,121,121,121,123,121,121,121,121,122,121
121,120,120,121,120,121,121,120,119,120,121,122,122,121,121,120,121,123,122,123,122,122,121,121,122,123,122,122,121,121,122,121,121,121,120,122,121,121,121,120,120,121,121,122,121,121,121,121,120,121,121,121,120,121,121,120,122,123,121,122,122,122,122,120,121,122,121,121,120,121,121,120,121,123,121,121,120,121,121,120,120,122,121,121,121,121,121,121,121,121,121,121,120,120,121,120,120,123,121,121,121,121,121,121,120,120,121,122,122,121,120,119,119,121,121,122,121,121,122,121,120,120,121,122,121,121,122,120
121,122,121,122,121,121,122,120,120,121,121,122,122,122,121,119,120,121,121,122,121,120,121,120,121,122,121,121,121,121,121,119,120,121,121,122,121,121,122,121,120,121,121,122,121,121,121,120,121,122,121,122,121,121,122,121,121,121,120,122,121,122,121,120,118,121,121,122,121,121,120,118,121,121,121,122,121,121,121,120,121,122,121,121,121,121,121,121,120,121,121,122,121,121,122,121,119,119,120,122,122,121,121,120,122,122,121,122,122,121,121,120,121,122,121,121,121,121,121,120,121,121,121,121,121,121,122,120
120,121,120,121,121,121,122,120,121,122,121,123,122,122,122,120,120,121,121,122,121,122,121,121,120,123,121,121,120,121,121,120,121,122,121,122,120,120,121,121,120,121,120,122,121,121,122,121,121,121,121,122,122,121,120,120,121,122,121,122,121,121,122,121,120,121,120,122,121,121,121,120,120,120,120,121,121,121,122,120,121,121,120,122,121,121,121,120,120,122,121,121,121,121,121,120,121,122,121,121,121,121,122,122,121,123,121,121,121,121,121,121,119,119,119,121,121,122,122,120,122,121,120,121,121,121,121,121
120,122,122,122,121,120,121,120,121,121,121,122,121,121,121,120,120,121,121,122,122,122,121,120,119,122,121,121,120,121,121,121,123,120,120,122,120,120,121,120,119,121,120,122,121,121,121,119,121,122,122,122,120,121,122,127,121,123,122,122,122,121,121,117,121,121,121,122,120,120,121,121,120,122,121,121,121,121,122,121,120,121,121,122,120,121,121,120,120,119,120,122,122,121,121,121,121,122,122,122,121,121,121,121,120,122,122,122,121,120,121,121,119,123,122,122,122,121,121,120,125,119,120,121,120,121,121,121
117,121,120,121,120,121,121,120,126,122,121,121,121,121,122,121,119,122,122,121,120,121,121,123,121,123,122,122,120,121,121,120,119,125,123,123,122,121,120,119,122,116,119,121,121,122,123,122,124,117,120,121,120,121,121,120,115,125,122,122,120,120,120,118,123,122,121,122,122,122,122,123,122,121,121,122,121,122,124,118,121,122,122,122,121,121,122,129,122,122,120,121,121,121,121,119,120,121,121,121,121,121,121,119,121,123,122,122,121,121,121,119,121,120,120,121,121,121,122,126,122,125,122,123,122,121,122,121
124,121,121,122,121,120,121,129,120,121,119,121,121,121,120,111,125,121,121,122,121,122,121,126,121,120,120,122,121,121,123,128,117,122,121,122,122,121,120,114,117,121,121,122,121,121,121,121,124,122,121,122,121,120,121,123,119,121,120,121,121,122,121,117,118,121,120,121,121,122,122,122,120,120,121,122,121,120,119,118,119,121,121,122,122,122,121,120,122,121,120,121,121,120,120,121,120,122,122,123,121,121,123,120,119,122,121,121,121,121,121,121,124,120,121,121,120,121,122,120,123,121,120,122,121,120,123,122
120,120,120,122,122,121,119,119,116,124,122,122,122,121,121,118,130,122,122,123,122,125,123,122,114,119,119,120,120,122,123,123,118,120,121,121,120,121,120,119,133,123,122,123,122,123,121,121,101,123,122,123,122,122,122,117,130,122,121,122,121,122,123,122,118,120,121,122,121,123,123,122,119,120,120,121,121,120,120,119,120,121,119,121,121,121,120,120,123,120,120,121,121,122,123,122,125,123,122,122,121,120,122,120,125,121,121,121,120,122,117,122,109,122,121,122,122,123,126,121,121,122,121,122,122,122,126,119
118,115,120,121,121,120,114,118,117,120,119,121,120,125,124,122,116,123,121,123,122,119,117,119,131,121,121,122,121,121,127,117,115,124,123,123,123,122,120,120,127,122,122,124,123,115,112,121,111,121,119,119,119,118,119,119,119,124,121,122,121,121,117,121,128,119,119,121,121,123,126,121,120,121,120,122,121,115,132,120,126,123,122,122,121,127,122,124,124,120,122,122,124,123,116,123,122,123,122,122,121,120,122,119,119,120,119,121,119,114,111,116,122,123,122,121,124,124,112,119,117,119,120,122,120,123,134,123
119,121,120,121,120,125,129,119,122,120,121,123,122,125,101,120,117,126,124,125,121,108,128,120,118,110,117,118,117,111,78,115,122,128,125,125,130,130,186,131,129,122,121,122,120,125,109,115,109,107,116,122,124,145,88,120,123,128,124,122,117,122,112,121,118,121,122,123,120,127,90,111,117,114,119,122,128,122,121,114,121,128,124,122,130,123,188,125,115,121,120,121,116,157,117,113,121,116,119,120,112,110,102,120,111,121,122,127,132,117,101,114,116,129,120,117,112,113,131,118,122,114,119,120,119,119,117,123
115,123,121,124,129,127,130,114,119,122,119,118,115,109,120,116,134,123,122,124,133,128,152,132,116,124,122,124,126,156,180,121,123,135,121,118,112,109,76,113,122,93,115,117,108,105,146,123,117,138,126,126,126,121,105,116,126,126,121,121,123,106,108,116,113,126,123,129,130,155,120,118,123,120,121,125,123,150,118,124,119,123,117,107,108,88,105,109,122,132,127,134,127,98,105,120,138,94,109,106,101,113,86,138,123,127,124,124,146,131,155,138,117,120,119,110,85,115,54,107,123,125,123,132,152,164,207,118
120,127,121,124,121,101,119,109,128,132,120,115,105,136,96,121,127,105,119,121,139,144,228,172,117,109,118,126,122,109,92,111,120,140,132,132,129,124,140,116,115,125,123,124,124,125,100,128,132,132,126,120,120,113,104,123,109,123,122,122,116,101,105,111,123,124,126,124,112,135,89,141,137,109,121,145,173,125,102,134,115,129,121,124,110,95,130,87,124,127,121,118,116,125,122,117,109,122,118,107,114,126,66,102,117,124,122,116,113,130,145,120,121,116,130,145,151,121,37,129,138,118,121,125,123,112,240,158
116,121,114,111,105,114,102,106,94,135,128,128,123,102,66,93,151,98,109,114,113,108,147,89,91,134,129,135,127,132,141,146,134,109,119,125,132,148,185,140,115,124,119,121,116,109,69,102,120,124,124,127,123,142,118,121,110,147,119,110,114,123,15,116,106,67,116,131,132,86,44,124,132,116,116,112,112,124,79,117,119,121,110,112,103,95,88,101,123,129,128,134,141,165,231,152,128,134,126,123,121,119,146,121,95,119,119,123,108,104,45,151,142,111,121,129,127,130,160,149,97,119,118,118,122,115,105,119
121,129,125,124,122,116,92,111,127,125,124,120,117,132,172,134,118,121,115,119,120,82,75,103,112,127,125,139,130,160,222,117,131,118,115,116,114,112,123,131,108,122,122,122,118,118,97,117,117,124,123,122,127,117,87,98,128,126,126,128,129,124,128,145,116,120,116,116,114,114,109,118,152,133,121,109,98,136,95,104,95,77,121,145,157,126,141,131,143,133,120,116,108,114,106,130,112,125,117,119,126,121,82,124,118,126,123,121,118,108,132,131,119,133,126,129,129,147,188,132,131,97,117,116,117,121,91,119
119,124,127,125,118,129,241,188,117,115,121,126,144,138,173,177,115,121,120,120,112,127,143,237,124,122,118,117,117,115,175,0,122,123,122,119,114,118,143,0,120,120,116,113,114,111,108,0,118,122,128,137,125,116,101,0,129,132,122,111,102,141,120,0,107,135,123,130,116,109,138,0,97,71,108,126,130,165,145,0,126,137,127,123,125,124,101,0,103,131,124,115,108,101,67,0,151,106,117,116,122,136,109,14,140,127,121,124,123,115,220,51,120,127,124,120,123,118,112,71,110,145,127,115,93,110,94,115
123,94,120,150,153,108,64,84,121,134,126,131,119,141,147,98,120,130,123,113,106,115,105,115,122,121,118,131,148,129,131,111,126,129,134,141,128,124,73,115,119,117,117,119,114,100,155,116,122,129,121,119,117,122,134,117,120,103,110,111,114,147,134,117,122,127,126,128,120,106,112,119,116,129,124,121,113,133,83,119,129,115,116,124,132,115,88,120,128,128,121,119,119,113,69,121,108,125,122,116,108,114,132,119,131,133,124,118,121,152,150,119,117,105,119,128,138,125,99,120,111,129,120,118,120,123,105,121
121,125,125,126,129,127,124,120,118,121,118,119,110,114,138,120,111,115,119,121,119,138,105,121,110,120,123,127,131,113,130,119,116,120,121,122,118,111,133,120,122,123,121,123,127,152,86,121,121,130,119,126,127,128,133,119,114,129,125,125,115,131,140,119,151,116,113,119,123,109,73,121,114,118,125,110,125,128,128,119,127,126,120,119,113,122,115,120,131,132,123,115,117,119,81,121,119,120,123,133,138,159,128,120,104,123,119,121,116,117,101,120,132,125,122,125,126,122,110,119,121,118,117,113,133,116,115,120
121,124,123,125,111,87,59,121,124,123,121,120,118,138,169,119,120,120,118,121,129,117,91,121,108,118,113,111,103,89,72,121,146,129,123,120,121,133,231,118,104,114,120,122,116,116,71,121,112,124,121,126,118,113,97,121,128,130,123,124,133,131,127,120,125,125,124,123,115,112,145,119,130,112,119,125,133,149,78,121,102,120,126,127,124,136,192,118,125,133,121,116,113,107,86,120,110,118,115,118,116,110,23,121,121,123,119,109,113,106,114,120,99,129,126,124,129,140,92,120,122,115,118,120,125,106,119,120
107,124,127,133,127,130,206,118,117,124,121,117,115,121,93,121,126,115,118,118,121,114,84,120,124,119,120,127,125,118,115,119,116,121,122,124,118,119,173,118,122,121,117,119,127,163,148,120,117,120,121,129,128,102,78,121,113,120,116,109,108,110,37,122,118,116,118,126,118,122,178,119,122,130,123,124,115,116,106,120,111,117,118,107,97,106,62,122,136,127,123,140,159,142,242,118,117,115,120,124,120,125,113,120,128,125,119,114,117,109,65,122,114,123,119,119,118,126,161,120,120,125,119,120,117,110,136,121
121,115,120,126,125,115,87,120,125,124,122,123,126,133,183,118,114,121,119,119,119,116,119,119,121,117,118,115,106,110,103,121,123,127,129,146,151,141,238,118,127,122,117,117,114,106,84,121,107,124,121,114,113,118,101,121,138,116,116,117,116,109,78,121,100,124,117,115,142,160,206,119,132,125,125,126,109,105,86,120,138,127,119,119,118,121,123,120,81,88,114,117,121,124,112,120,125,130,126,126,129,129,150,120,124,126,121,120,115,108,75,120,117,117,121,128,128,129,102,121,119,119,119,119,117,123,98,121
122,117,119,114,111,99,76,121,122,121,120,122,119,119,108,121,118,124,121,123,124,120,122,119,123,119,122,121,119,126,113,120,124,125,121,113,114,123,99,120,117,118,120,130,130,125,119,120,124,128,121,117,115,110,96,121,120,115,123,125,119,110,79,121,127,131,123,129,134,145,231,118,100,115,116,116,113,107,84,121,115,125,123,123,117,118,121,120,136,128,121,118,108,106,95,120,101,117,123,128,127,130,160,119,118,112,121,131,127,125,109,121,122,118,119,119,119,99,94,121,122,125,121,119,121,111,115,121
118,123,120,117,109,123,120,120,123,120,121,125,130,127,96,121,113,121,122,121,120,119,107,121,131,119,117,116,118,118,114,120,114,121,120,122,134,116,96,121,126,126,122,124,125,129,186,118,122,128,122,121,120,119,103,121,112,118,119,120,121,118,74,122,115,119,122,127,128,131,133,119,121,128,123,124,122,126,105,121,126,128,121,126,123,126,117,120,119,111,119,121,118,127,133,120,122,123,122,121,127,137,111,120,133,125,120,124,118,104,73,122,116,117,121,124,121,122,114,120,133,123,120,119,121,120,134,119
124,120,120,119,116,113,98,121,113,122,123,123,125,122,187,119,117,120,121,127,127,128,120,120,126,125,119,117,118,123,90,121,125,124,124,121,120,111,111,121,126,117,120,122,125,126,132,120,121,126,124,126,134,130,120,120,118,119,120,117,117,120,121,120,124,120,124,133,129,110,98,120,120,120,120,121,126,130,140,120,136,121,119,118,119,110,108,121,113,121,121,116,115,124,103,120,121,115,121,126,130,116,134,119,117,123,121,121,120,118,112,121,138,123,120,117,112,132,129,120,125,117,122,125,122,133,78,121
119,125,121,119,116,117,111,120,133,122,119,122,117,112,97,120,113,112,119,120,122,122,134,120,114,124,123,124,125,121,115,121,125,122,120,119,119,112,93,120,119,122,122,122,120,130,149,119,121,123,119,119,120,122,102,121,111,113,118,121,123,116,113,120,121,122,121,122,118,118,127,119,125,127,119,120,120,112,108,120,111,122,128,141,145,119,114,121,128,111,118,118,117,121,110,120,114,121,119,118,115,118,87,121,120,124,121,120,118,110,89,121,121,127,122,125,128,129,107,120,125,116,119,119,118,120,89,121
120,125,121,120,118,119,110,120,99,119,120,122,126,117,116,120,124,119,119,119,123,117,117,120,117,122,123,126,123,126,155,119,121,124,120,111,123,126,128,120,110,123,119,119,120,128,109,120,125,121,121,120,115,110,91,121,135,123,122,124,126,128,128,120,113,120,118,116,114,117,118,121,121,124,124,127,126,125,132,120,121,123,124,124,124,131,137,119,114,121,120,117,111,115,124,121,138,125,120,122,122,131,84,121,108,125,122,124,127,122,125,119,124,121,122,123,116,118,117,120,103,114,119,122,124,122,113,121
124,124,121,124,123,116,103,121,123,125,123,121,120,127,99,121,119,119,121,125,118,109,115,120,127,127,125,125,121,117,121,120,124,121,120,125,120,126,114,129,120,124,121,121,123,115,119,120,121,126,119,113,111,103,67,121,125,122,123,130,124,131,110,120,118,123,123,123,124,116,108,120,128,126,123,120,115,114,107,121,115,118,120,121,128,139,107,121,121,117,121,123,121,125,116,120,132,126,123,125,120,121,118,120,128,121,121,123,120,118,110,120,109,130,122,121,120,126,119,120,126,99,116,123,125,128,98,120
129,127,126,126,122,117,107,120,117,120,118,117,118,120,129,121,125,123,120,119,116,119,120,121,126,124,120,116,117,129,172,119,125,122,124,128,133,126,123,120,119,126,123,123,117,117,106,121,109,126,121,122,128,125,101,120,128,107,115,115,116,106,162,120,126,124,122,123,121,131,122,120,116,123,119,115,115,118,110,120,120,117,119,125,122,111,117,121,117,121,122,121,118,122,113,121,119,122,119,118,111,118,127,119,134,122,122,121,126,126,123,120,115,123,122,124,124,112,80,120,123,114,120,125,127,126,154,119
122,122,118,116,111,115,115,120,108,121,119,122,119,115,98,121,111,124,124,122,121,117,120,121,110,119,121,122,121,119,124,120,121,118,122,123,126,123,135,120,124,123,120,120,116,120,120,120,125,117,121,124,125,117,101,121,125,122,119,117,113,121,156,119,118,121,123,127,125,125,138,120,127,119,120,118,116,118,118,120,115,123,120,124,126,123,120,121,127,123,120,120,115,107,94,121,124,124,122,123,118,122,124,120,120,116,119,118,115,120,147,119,116,119,119,123,126,113,119,120,125,121,119,119,119,125,116,120
134,119,119,117,115,118,129,120,112,123,123,124,125,120,85,121,133,124,122,120,121,122,124,119,115,123,121,122,120,116,107,120,118,123,122,115,118,107,96,121,126,121,120,123,124,121,140,120,118,119,119,113,106,113,118,120,127,126,120,122,119,110,175,119,111,115,120,125,120,121,111,120,108,122,123,125,127,132,92,120,123,122,122,118,126,119,99,121,125,128,122,125,119,127,101,121,119,124,121,122,121,112,178,119,132,122,121,119,118,116,96,121,121,131,126,129,124,121,155,120,85,101,116,114,119,134,241,118
128,126,119,117,112,117,113,120,120,124,121,122,113,104,111,120,127,117,119,127,122,132,104,120,110,122,120,119,123,105,127,120,125,122,120,120,122,136,171,119,115,121,119,118,119,134,100,120,124,122,122,123,120,124,113,120,103,118,123,112,117,119,86,121,124,126,123,132,136,143,216,118,118,121,119,119,125,119,112,121,117,122,120,120,112,94,74,121,117,113,116,119,113,121,108,120,119,123,122,120,119,117,131,120,106,129,121,121,125,117,75,121,116,109,119,127,131,138,148,119,102,117,119,118,108,110,107,120
148,124,120,124,126,133,161,120,97,117,118,119,129,116,87,121,124,128,123,120,114,122,118,120,123,118,122,127,121,123,101,120,127,125,123,123,124,115,131,120,122,119,122,111,122,136,135,120,121,124,121,121,120,119,121,120,122,123,118,120,121,123,160,119,109,120,123,129,130,115,94,121,118,129,125,126,128,127,148,119,139,110,122,125,120,124,134,120,119,119,121,126,120,128,107,121,107,122,120,117,119,119,117,120,150,128,127,127,128,139,103,121,109,126,122,119,121,117,116,120,151,121,124,135,134,119,87,121
108,124,121,113,109,117,111,120,126,127,120,127,131,130,120,120,120,128,123,129,128,121,115,120,129,116,121,125,121,102,142,120,116,124,117,115,115,106,113,121,130,123,128,126,137,144,136,119,116,121,119,122,117,116,69,121,118,123,119,119,119,116,106,121,116,122,121,119,124,127,184,119,129,118,118,119,122,135,108,121,134,118,124,127,127,125,107,120,112,120,117,115,116,118,88,121,120,117,116,121,115,85,32,122,124,123,121,118,116,133,119,121,128,126,122,118,117,130,159,119,123,126,120,127,131,139,106,121
112,123,116,107,101,97,85,121,119,124,123,126,126,136,141,119,126,129,119,118,125,121,112,120,105,114,122,118,113,112,73,121,131,125,120,132,123,117,102,121,124,120,119,119,119,145,146,155,117,124,121,121,121,124,138,147,116,123,124,123,120,135,177,123,135,123,123,124,124,134,122,135,124,116,123,123,121,131,73,128,125,125,117,117,123,124,81,134,122,123,120,119,123,123,115,121,130,128,129,123,128,143,148,87,122,118,120,122,123,118,92,99,118,124,120,121,119,123,126,121,107,121,118,116,113,120,99,119
118,119,120,124,147,119,241,89,127,115,123,128,117,119,91,106,126,123,122,121,121,110,83,151,106,117,120,118,115,120,112,109,120,120,120,119,123,142,134,102,117,128,122,115,111,111,103,125,135,120,126,136,136,132,130,151,116,124,121,122,125,110,91,112,129,122,119,115,111,129,134,96,131,130,122,120,130,122,143,109,95,108,124,141,158,101,131,115,135,118,120,118,114,117,88,118,122,129,121,111,106,120,114,119,126,122,119,119,125,121,108,120,108,115,118,117,110,116,126,119,117,122,119,123,114,105,65,121
116,118,123,137,141,131,135,119,119,126,120,115,116,116,79,121,119,115,116,125,105,115,104,121,118,121,122,127,134,118,94,121,131,113,118,112,111,112,121,120,115,126,120,124,119,116,105,120,120,123,120,116,111,123,110,121,114,133,129,134,137,130,148,120,115,107,116,113,109,112,46,122,122,128,124,131,130,127,122,120,118,118,120,120,121,123,139,120,111,125,121,121,122,122,114,121,125,119,120,118,114,98,107,121,120,119,116,119,108,124,122,120,129,127,126,126,131,111,84,121,126,121,121,123,121,135,139,120
119,124,118,114,112,119,108,121,124,124,120,119,119,122,96,121,113,123,122,125,131,114,121,120,131,117,121,121,126,126,101,121,115,124,121,120,122,123,111,120,116,105,116,119,121,133,130,120,89,124,122,120,109,109,120,116,137,125,122,128,145,124,123,119,131,122,120,122,110,138,116,120,123,116,121,116,128,121,114,136,102,125,119,114,112,110,105,127,146,120,119,120,121,122,107,107,115,117,119,116,119,124,125,114,121,121,120,119,118,105,112,119,119,126,124,118,101,117,117,119,112,113,117,130,134,122,107,120
116,123,118,99,112,119,110,120,133,124,124,138,129,126,138,120,108,123,117,105,113,118,105,120,118,121,120,114,109,116,151,119,112,125,123,119,127,132,124,120,125,116,119,131,121,103,95,121,132,125,123,131,123,135,165,119,116,121,121,117,114,116,107,121,129,129,122,119,117,117,113,129,128,100,117,120,121,119,138,144,87,117,121,122,121,127,108,132,143,129,124,125,124,136,161,123,108,124,119,119,122,127,92,128,114,122,124,130,124,105,120,98,123,123,126,134,138,122,70,105,120,119,119,122,124,123,102,120
121,122,121,116,113,112,103,126,124,123,123,129,137,113,137,131,115,122,122,128,124,126,132,129,122,124,120,116,114,124,108,134,124,114,116,112,102,95,94,122,114,130,128,132,136,139,150,101,119,120,122,122,117,124,142,109,113,123,121,119,121,119,110,136,121,122,119,118,112,115,98,118,121,125,121,126,127,145,143,98,122,126,122,117,120,106,110,112,119,117,121,133,126,123,124,120,139,122,118,119,117,119,105,118,116,124,119,118,118,117,74,117,122,122,118,110,100,114,140,129,118,120,122,131,127,125,115,112
127,118,117,115,118,103,67,133,118,121,120,121,120,127,139,137,123,122,118,113,110,103,76,124,131,120,120,123,118,117,92,106,119,119,122,124,118,125,154,113,124,119,123,127,134,129,116,118,126,128,124,129,127,135,126,119,135,125,120,114,125,110,133,119,107,114,123,124,119,119,114,121,131,131,119,116,115,124,117,121,129,127,128,131,133,157,216,118,122,113,119,120,122,109,97,120,108,119,118,119,116,127,113,120,125,125,125,132,143,108,139,119,119,121,119,119,114,130,86,121,118,121,123,126,121,110,81,121
127,122,118,111,108,113,106,121,118,121,122,132,131,117,113,121,125,109,119,109,116,110,168,120,119,117,118,126,124,124,132,120,134,122,120,122,110,123,96,128,137,112,115,115,118,101,108,121,113,127,124,122,124,129,127,111,128,124,121,124,122,109,116,116,130,123,122,117,108,114,115,118,111,125,119,119,123,130,127,119,128,122,121,124,118,114,116,120,106,129,127,128,119,119,136,120,126,109,118,120,120,123,129,120,115,124,123,123,135,122,116,120,118,124,120,127,123,124,134,120,114,121,121,122,115,114,115,120
124,127,123,124,119,139,134,120,107,115,119,117,115,116,148,123,114,125,120,100,106,116,191,117,134,120,120,123,129,133,100,120,112,130,122,111,100,103,106,120,139,116,118,116,131,127,102,121,119,111,121,136,132,116,147,119,133,127,124,121,115,117,115,120,123,121,121,119,122,122,136,120,114,109,117,118,118,119,134,120,129,129,127,131,131,122,108,120,129,129,119,115,107,138,129,120,111,112,120,118,113,107,79,121,152,131,122,125,130,133,115,120,115,117,121,123,118,123,114,120,114,124,120,119,131,123,99,120
118,127,124,133,125,128,123,120,118,116,120,123,116,107,120,120,120,122,121,116,121,122,126,120,116,121,122,121,116,120,136,120,126,126,120,126,141,136,149,119,103,112,116,118,109,111,106,121,121,125,119,117,116,113,98,134,141,115,118,114,121,124,132,117,119,120,127,133,131,117,133,119,93,123,122,121,117,119,119,120,142,112,120,124,126,122,133,132,120,132,120,115,112,129,113,120,120,121,121,121,119,102,90,139,118,125,125,125,114,116,103,141,121,116,117,119,126,120,162,129,118,123,119,116,119,140,190,97
126,129,131,132,128,125,95,93,127,119,121,131,130,119,121,105,117,119,117,119,110,118,115,118,125,123,118,123,149,148,110,114,123,129,125,126,118,146,242,115,119,124,121,124,121,127,107,138,116,127,122,119,120,111,113,147,125,121,119,125,125,111,98,106,137,131,124,122,120,135,138,103,122,133,121,121,119,130,104,113,118,120,123,130,124,85,76,118,120,128,125,131,127,132,115,119,132,111,116,113,110,117,130,119,98,128,124,124,131,108,126,120,133,121,123,119,120,131,84,121,127,123,124,134,137,132,110,120
114,122,122,120,111,107,128,120,121,121,119,123,127,126,108,121,125,123,121,126,121,115,92,121,122,122,122,123,126,120,95,121,122,128,123,116,98,100,118,119,121,114,122,134,139,139,116,120,140,119,118,116,116,109,120,120,125,134,124,123,120,117,127,120,122,113,118,117,113,116,119,120,112,118,118,117,116,117,105,121,104,132,122,117,109,118,61,121,122,121,123,134,134,109,116,120,132,118,119,120,113,102,49,121,122,120,125,131,141,141,169,119,129,127,121,129,139,138,154,119,109,121,122,122,118,90,10,122
118,122,119,118,120,131,180,118,118,122,125,125,124,114,95,121,123,120,119,116,111,122,124,120,110,119,120,126,129,125,85,120,101,132,122,123,114,122,116,134,148,104,118,135,147,128,174,140,121,134,121,108,103,119,119,133,90,106,114,119,127,118,113,120,131,142,126,121,111,122,119,140,122,88,115,114,119,111,97,114,141,129,126,135,139,135,146,94,126,130,123,123,123,124,112,109,137,127,126,124,127,127,111,115,111,126,121,117,117,140,176,117,116,112,120,121,110,113,148,129,114,121,123,134,152,130,44,116
126,127,123,123,117,130,161,117,123,121,118,117,118,115,94,120,123,127,120,119,124,117,95,119,122,112,124,127,120,105,108,141,110,120,125,123,120,134,91,124,121,124,122,122,117,103,85,134,101,119,115,115,114,116,205,141,127,128,126,127,130,118,37,122,114,121,121,126,115,120,178,92,108,128,122,115,113,116,108,109,128,118,119,123,126,119,115,115,108,128,120,120,112,100,122,118,133,123,122,121,121,137,169,139,121,131,122,121,125,125,110,135,104,113,116,111,100,107,151,111,122,129,124,119,112,124,126,113
103,105,125,135,134,118,128,107,146,122,119,115,114,129,154,113,109,116,115,110,106,111,117,125,125,126,122,127,130,129,89,118,123,118,121,124,114,105,119,119,117,125,126,137,138,152,95,119,118,115,117,121,116,98,95,120,107,120,118,112,109,116,92,121,132,121,125,129,128,120,138,120,116,122,127,136,132,133,84,121,133,116,124,132,132,124,92,121,117,115,117,112,108,102,60,122,114,131,124,128,126,121,114,120,123,126,119,121,123,141,173,119,132,128,122,122,126,104,87,121,97,107,119,124,128,118,117,120
121,126,117,117,106,134,106,121,145,116,118,118,119,117,163,120,119,128,124,124,117,126,210,118,118,129,124,130,132,123,177,119,117,118,121,127,132,160,167,119,119,125,123,125,122,120,132,120,111,121,122,121,119,114,57,122,123,126,121,121,116,111,198,118,126,105,119,117,119,105,43,122,91,125,119,129,140,156,214,118,146,123,120,118,99,96,110,121,124,121,123,130,126,119,92,121,101,125,124,125,126,137,189,119,142,126,122,124,113,126,81,121,97,119,112,112,120,68,85,121,116,121,122,130,106,128,205,119
108,122,122,114,136,113,90,121,134,110,117,120,111,123,129,120,122,125,119,107,99,97,58,121,122,125,124,131,141,134,151,119,122,123,120,129,134,128,88,121,120,130,120,114,104,107,81,122,89,89,111,115,109,112,138,120,132,134,122,119,126,126,43,121,116,124,125,128,122,102,73,122,141,122,122,129,133,124,118,120,125,123,118,114,108,113,114,121,102,126,122,121,129,123,115,119,151,131,121,118,113,117,126,120,95,93,118,119,130,122,125,120,117,127,123,117,118,120,146,120,123,119,119,133,133,124,120,120
149,122,125,125,112,101,104,120,126,126,125,123,126,155,192,119,91,121,115,110,105,107,179,119,156,123,130,136,138,142,17,122,99,130,118,114,117,122,142,120,111,103,113,117,120,104,107,120,109,114,119,121,128,127,55,121,123,122,122,124,119,134,207,118,126,125,120,117,120,110,77,121,128,128,123,120,122,123,133,120,109,119,117,118,125,122,147,125,93,105,123,125,123,146,175,116,135,121,116,122,114,105,85,113,118,126,126,129,150,173,242,112,126,127,125,127,124,121,107,118,129,124,121,120,114,118,101,119
122,128,121,115,99,87,49,121,120,122,121,127,132,145,228,118,107,119,118,119,114,112,133,119,125,126,127,116,113,96,49,122,124,115,118,124,121,109,33,122,103,125,118,114,94,84,101,121,131,131,131,137,141,163,236,118,105,108,117,121,120,118,94,120,129,120,119,114,108,109,92,121,117,132,125,128,139,122,130,120,138,144,130,131,131,123,157,119,87,91,116,117,111,142,224,118,133,120,122,128,123,98,108,120,119,125,121,118,109,137,97,121,115,126,124,121,125,131,221,118,130,119,129,129,111,116,95,120
124,124,123,139,157,170,186,119,117,128,125,117,117,106,110,120,108,117,118,117,107,92,147,120,131,127,123,119,126,166,241,118,106,116,119,121,115,107,164,120,113,127,122,118,113,103,49,121,124,130,123,113,120,159,220,119,110,129,123,128,131,122,98,130,139,111,119,114,108,85,99,109,131,147,127,124,125,159,232,114,123,103,117,124,125,105,78,119,108,127,124,130,121,122,139,119,136,127,121,118,118,121,93,121,113,118,114,126,134,96,6,123,120,125,124,123,116,137,187,118,113,121,123,126,133,106,86,120
124,115,118,117,111,103,3,122,119,120,117,121,118,99,86,121,123,129,126,126,128,107,48,122,103,104,119,122,118,111,96,120,135,132,122,112,110,114,153,119,148,94,120,141,127,125,214,118,91,130,125,125,135,163,101,121,72,120,120,116,115,119,111,120,158,132,119,112,109,119,115,120,103,121,119,128,134,132,88,120,132,132,131,140,127,134,222,118,100,102,119,123,120,145,111,121,123,124,120,117,112,108,100,120,123,117,116,115,105,92,104,120,118,123,123,129,135,129,176,118,109,120,119,115,117,117,107,120
132,120,120,120,121,122,113,120,120,121,117,117,116,93,0,122,111,125,126,131,120,111,182,118,130,119,119,120,119,125,109,121,119,124,118,119,125,119,117,121,110,114,118,119,128,112,90,121,122,125,122,126,133,146,220,119,117,124,120,121,114,131,113,120,101,117,119,119,119,113,96,122,124,130,120,113,102,103,89,121,122,109,117,129,123,117,164,119,124,113,117,115,114,132,142,119,125,129,122,119,115,123,78,120,102,115,118,112,104,105,63,121,125,133,126,139,154,171,237,118,112,100,116,124,112,89,49,122
122,125,123,120,117,122,204,119,123,123,118,114,111,128,149,120,118,122,120,122,101,113,110,120,117,120,122,136,135,114,0,123,118,118,119,112,108,110,204,119,116,121,117,110,105,100,45,121,125,131,128,128,141,102,119,120,116,103,116,124,117,107,99,121,127,135,121,107,98,118,156,119,116,127,123,121,129,106,70,122,97,118,122,131,129,141,225,119,111,124,120,115,109,106,100,121,98,132,123,121,118,123,115,120,104,115,122,117,121,121,79,121,146,118,121,133,128,135,241,118,112,127,125,123,122,116,145,120
116,123,119,118,114,117,60,121,133,120,129,130,123,159,149,120,124,125,126,135,139,125,132,120,120,124,121,121,112,112,111,121,119,121,119,118,124,130,130,120,119,122,122,114,99,97,93,121,121,122,123,123,126,135,198,118,134,132,124,127,125,144,177,119,112,101,118,119,125,146,161,120,120,116,118,115,102,103,79,121,75,134,126,137,140,114,103,121,135,117,116,117,118,123,103,121,121,130,122,116,111,107,101,121,97,130,121,119,119,129,145,120,148,117,118,132,136,129,121,120,115,120,122,122,122,126,107,121
112,132,127,126,121,121,93,121,128,91,114,126,136,132,114,121,114,124,115,101,99,104,87,121,118,125,126,133,134,146,115,120,117,123,117,119,128,138,192,119,119,123,119,109,98,114,107,121,123,123,126,135,143,106,14,123,124,122,126,141,142,116,198,119,116,120,121,117,110,112,98,121,122,118,120,116,114,107,92,120,88,135,123,118,105,99,77,121,196,113,125,139,150,145,241,118,80,120,121,121,118,119,114,121,130,134,122,120,119,120,107,120,135,109,115,117,118,114,125,121,101,106,115,113,114,139,138,120
136,134,123,128,129,137,118,119,105,127,123,126,126,124,198,118,116,122,121,120,119,128,198,118,129,126,124,127,135,139,106,120,127,119,124,126,118,102,106,120,118,123,122,126,123,131,136,120,122,123,120,117,119,131,155,120,119,120,117,111,107,123,85,122,115,124,124,132,134,136,110,120,120,136,126,134,148,108,106,120,139,93,117,117,107,114,93,121,124,128,121,117,118,119,109,120,109,123,121,120,117,113,123,120,129,122,121,121,125,130,102,121,126,139,125,123,118,114,109,120,89,93,114,120,122,118,107,120
123,132,124,123,121,121,119,121,121,131,122,122,122,129,118,120,116,119,122,121,119,101,70,121,120,115,119,123,125,123,187,119,124,123,119,118,109,100,47,122,118,118,117,116,124,128,195,119,122,121,121,121,125,116,138,120,133,127,122,114,105,127,123,121,128,119,124,136,133,132,43,121,110,93,116,118,115,108,123,120,120,126,118,110,104,106,140,119,115,133,123,119,113,123,92,121,137,105,112,110,120,118,198,118,116,113,123,132,120,121,146,120,126,131,122,120,124,136,173,119,125,127,122,125,136,126,107,120
119,119,121,120,111,97,75,121,134,127,123,121,122,133,101,121,113,118,119,124,124,118,114,120,120,125,121,116,108,123,87,121,131,118,123,139,139,109,82,121,123,123,119,112,109,118,155,119,119,121,123,135,134,152,153,120,126,127,122,118,103,97,85,121,116,114,118,119,119,101,61,121,120,125,123,125,127,125,101,121,120,122,119,112,112,110,106,121,123,128,121,120,121,138,108,121,112,117,123,131,132,123,145,120,95,101,117,121,109,110,162,119,120,133,125,128,130,145,131,120,129,124,119,112,101,112,101,121
125,136,122,127,136,124,122,121,117,124,117,119,112,110,138,119,132,118,119,116,116,115,110,121,123,128,124,130,134,128,105,121,111,120,122,115,108,132,128,120,109,109,119,123,122,113,70,122,120,124,120,119,119,109,152,120,119,121,118,119,109,109,84,122,119,121,119,118,125,122,139,120,119,120,118,118,123,117,108,121,128,127,129,132,125,132,126,120,119,124,124,135,129,108,120,120,132,121,122,122,119,118,141,120,120,122,121,120,121,123,123,120,96,127,120,121,119,121,97,121,161,123,119,118,117,121,88,122
89,117,120,133,127,119,127,120,119,119,119,115,113,119,110,121,121,143,124,119,113,95,82,121,114,90,113,120,114,103,62,121,130,129,127,129,129,139,130,120,128,125,123,121,118,117,99,121,127,122,121,125,131,127,101,121,104,123,116,112,107,103,125,120,128,115,125,133,148,166,241,118,112,126,120,118,114,99,97,121,116,121,116,109,102,110,90,121,124,122,119,121,116,104,136,120,121,123,126,122,133,126,81,121,122,119,120,118,116,135,148,119,122,112,116,112,107,108,84,122,103,116,121,124,131,129,41,121
122,129,126,129,134,139,115,120,122,126,121,119,115,108,97,121,107,118,121,123,120,120,118,121,87,119,117,116,115,117,116,120,120,126,120,124,127,119,96,120,149,110,118,120,118,112,123,120,119,127,121,120,109,120,111,120,110,125,125,126,127,114,109,120,123,119,119,119,119,139,127,120,122,122,121,122,120,118,99,120,120,119,118,114,110,118,86,121,124,122,122,131,135,129,139,120,122,122,123,121,119,119,81,121,123,119,117,118,118,114,78,121,111,131,125,129,129,121,69,121,124,105,115,120,120,118,111,119
116,124,122,121,121,106,82,122,133,123,122,124,122,122,121,121,107,128,123,123,126,126,113,121,146,127,124,129,118,125,139,119,124,117,119,122,124,118,113,121,119,125,120,118,115,124,62,121,125,123,124,126,126,132,143,119,124,128,121,117,113,103,100,121,131,116,116,114,111,108,133,120,101,119,123,139,137,137,160,119,133,119,121,119,113,109,99,120,123,125,120,119,118,120,139,119,128,116,116,115,114,98,72,121,131,122,124,131,126,121,205,119,101,118,119,119,120,128,146,120,141,125,122,121,125,112,99,120
109,117,116,116,112,114,112,120,119,130,123,124,116,112,123,120,117,112,116,118,121,135,117,120,118,129,122,123,122,129,117,120,109,129,122,120,121,125,129,120,116,96,116,122,118,117,123,120,119,125,121,122,124,135,201,119,121,126,121,122,120,112,97,121,122,124,122,120,120,119,109,121,123,123,117,110,105,103,141,120,116,115,121,128,136,139,208,119,125,125,122,117,106,103,68,121,131,127,122,120,125,111,82,121,112,112,119,116,117,143,241,118,109,126,121,123,117,113,107,121,149,120,122,114,118,124,210,119
133,123,124,131,130,131,129,119,100,113,120,120,121,118,113,120,151,120,121,125,129,121,67,121,121,127,122,120,117,136,239,118,132,125,122,124,121,110,88,121,114,112,121,123,126,147,163,119,125,127,122,124,125,131,109,121,123,127,122,117,108,103,73,121,120,123,125,132,135,134,126,120,120,120,118,113,109,116,111,121,123,123,125,128,131,124,94,121,123,120,120,117,115,113,179,119,116,122,120,125,122,130,101,121,106,120,123,125,122,105,101,120,122,117,120,117,121,130,118,120,114,131,124,125,124,134,126,120
145,116,122,125,133,124,121,121,115,124,120,118,113,116,105,121,144,111,119,120,118,113,103,120,96,130,124,123,124,130,185,119,138,113,116,117,117,118,129,120,130,121,122,125,126,123,194,119,115,125,123,122,120,109,92,121,125,121,122,123,126,130,117,120,133,118,118,116,118,115,111,120,114,123,119,119,119,143,139,120,124,117,119,117,119,120,129,119,113,121,119,119,118,115,110,120,123,120,122,125,121,113,80,121,122,127,123,122,121,130,183,118,110,111,117,117,111,133,94,121,128,128,124,123,133,119,184,118
115,118,123,128,123,112,76,121,110,119,120,119,117,118,114,120,144,123,119,121,126,121,125,121,117,131,124,123,123,125,98,121,134,122,121,120,119,119,123,121,135,105,117,119,120,118,128,120,126,128,126,130,139,147,241,117,122,126,122,126,123,115,81,122,132,124,123,123,122,115,190,118,123,123,121,122,115,133,116,121,123,124,122,121,120,113,107,121,119,121,120,122,121,126,142,119,123,121,119,119,118,123,128,120,117,120,121,120,116,119,113,121,118,127,122,123,114,102,28,121,123,112,118,120,116,131,179,119
114,112,120,128,132,112,88,121,132,116,120,119,114,117,129,120,121,125,121,120,119,116,116,120,108,138,126,121,121,124,118,120,154,109,118,125,123,131,156,120,118,130,123,120,120,112,90,120,114,125,121,121,122,121,119,121,124,119,120,119,116,116,108,120,117,120,116,114,113,118,98,121,125,126,124,122,117,134,174,119,118,118,121,124,125,118,166,119,118,121,121,124,122,126,108,120,122,120,120,121,110,121,115,120,118,121,121,122,125,119,116,120,123,122,119,118,127,120,120,121,121,122,121,116,118,122,124,120
127,127,124,128,123,121,123,121,121,119,117,115,119,132,121,120,115,103,118,123,122,122,120,120,104,126,123,122,126,133,223,117,117,126,121,127,119,118,110,120,128,126,122,109,119,118,118,121,124,122,120,118,122,126,122,121,120,119,118,117,120,125,122,119,116,119,121,125,122,121,120,120,120,122,122,123,120,121,120,153,117,120,121,121,115,119,121,201,122,122,122,133,132,121,129,242,121,123,120,108,128,121,118,241,121,121,121,124,119,118,121,241,120,122,121,122,121,125,122,242,104,119,122,121,120,114,118,242
137,124,119,127,112,124,123,242,140,126,119,98,119,129,125,242,103,118,120,130,122,128,118,242,122,121,121,122,120,122,121,241,104,119,123,138,118,126,119,241,109,117,116,143,125,113,121,164,161,127,113,73,109,170,132,132,120,125,125,133,142,113,116,124,113,118,120,124,122,118,119,122,116,119,120,124,118,120,121,121,119,120,121,123,121,123,121,121,121,119,120,120,118,122,122,121,129,122,121,124,123,125,121,121,118,128,125,124,118,118,123,120,119,120,121,121,122,119,121,121,118,120,119,120,120,122,121,121
121,122,120,120,121,121,121,121,126,121,121,121,120,122,123,121,114,124,123,122,122,116,123,121,126,121,121,121,121,118,119,121,119,121,121,122,121,121,121,121,118,121,121,122,122,122,118,120,129,121,121,121,120,119,120,121,108,122,122,122,120,124,121,120,124,122,121,123,125,115,120,120,127,118,121,121,119,119,121,121,121,122,121,123,121,121,121,121,124,122,120,121,119,119,120,121,117,121,122,122,123,119,121,120,119,122,121,123,122,123,122,120,123,122,120,122,121,122,121,120,113,120,120,122,121,121,122,120
120,121,121,122,121,121,121,121,123,122,121,119,122,121,121,120,114,122,121,121,120,121,121,120,121,121,122,124,122,121,122,121,121,122,121,122,122,121,120,120,120,122,121,122,121,122,121,120,121,120,121,122,121,120,121,120,119,122,121,122,122,121,121,120,115,120,121,121,121,123,122,120,125,121,120,124,121,117,120,121,134,121,120,118,121,121,121,120,109,122,123,123,121,121,122,120,117,119,119,122,121,120,120,121,122,122,122,122,122,125,122,120,117,122,121,122,122,125,120,120,116,121,122,123,121,116,122,120
119,121,122,121,120,120,120,121,120,121,119,122,121,116,119,120,121,121,121,122,122,124,120,120,121,121,122,122,120,116,121,120,120,122,122,122,121,122,122,120,120,121,121,123,121,122,122,121,121,121,121,122,122,121,121,120,120,123,122,122,120,120,121,121,121,120,121,121,120,121,121,121,117,122,121,122,122,122,121,121,133,121,120,121,121,122,121,121,115,121,121,122,122,120,121,121,114,121,121,121,121,121,121,120,124,121,120,122,121,122,123,121,122,121,121,121,121,120,121,121,118,121,120,121,121,124,121,121
118,121,122,122,122,121,122,120,119,121,121,122,122,121,121,120,120,121,122,121,120,124,121,121,121,121,119,117,121,120,120,120,120,122,121,121,120,122,120,120,120,121,121,124,122,120,122,120,122,122,122,121,120,121,121,121,120,122,121,122,120,121,121,120,119,121,120,122,121,120,120,120,118,120,120,120,120,122,122,121,124,122,120,121,121,120,121,121,120,123,122,122,121,121,122,121,115,122,121,121,121,121,122,120,122,122,121,121,121,121,120,121,119,122,120,121,121,121,121,121,120,121,120,121,121,120,122,121
121,122,122,122,121,127,122,121,118,120,120,122,121,123,121,121,117,121,121,122,122,122,122,120,127,122,121,121,120,121,121,120,120,123,120,121,122,125,122,120,120,120,122,123,118,118,118,120,121,122,120,120,121,115,121,120,122,122,121,122,121,122,122,121,120,121,121,122,121,122,122,120,121,120,120,122,121,121,121,120,122,120,121,122,121,121,121,121,120,123,121,122,121,121,121,121,122,122,120,121,121,121,121,121,119,122,121,121,122,122,123,121,122,120,120,122,122,122,122,120,122,121,121,122,122,122,122,120
120,122,122,122,120,121,121,120,121,122,121,122,121,120,121,120,121,122,121,122,120,121,121,120,120,122,122,121,120,119,121,120,121,122,121,121,120,126,122,121,122,121,121,123,121,120,122,121,117,121,122,124,122,121,122,121,123,122,121,121,121,121,121,120,119,121,120,119,119,120,120,120,120,120,121,124,121,121,122,121,120,122,122,123,121,120,121,120,118,122,121,122,120,121,121,120,125,122,122,125,121,121,122,120,125,122,121,121,121,121,122,120,119,121,120,121,121,122,121,121,120,122,122,123,122,122,121,121
121,122,121,123,121,121,121,105,122,122,121,122,121,122,122,106,118,121,121,122,121,121,121,100,121,122,121,121,121,121,122,104,120,121,122,122,120,121,121,103,119,122,121,121,123,122,122,107,119,121,120,119,120,121,121,103,121,121,119,120,120,121,121,105,123,122,121,123,121,121,121,105,119,121,121,122,121,121,121,105,121,121,121,120,122,121,121,106,120,121,121,122,121,121,122,107,120,122,122,124,122,121,121,106,122,120,121,123,122,121,122,108,120,122,121,123,122,121,121,107,120,121,120,122,121,121,122,108
120,121,121,122,121,122,121,107,121,121,121,122,121,121,121,109,118,121,121,122,121,121,120,107,119,121,121,122,121,121,121,109,121,122,121,123,122,121,121,109,121,123,122,123,121,122,122,111,120,121,120,121,121,121,121,107,126,122,121,122,121,122,123,118,120,122,121,122,122,121,120,108,118,120,121,122,121,121,121,109,121,121,120,122,121,121,121,112,120,121,121,122,121,120,121,107,119,122,121,122,122,121,121,111,121,121,121,122,121,121,120,110,121,122,121,122,121,121,122,112,120,121,120,122,121,121,121,111
120,121,121,122,122,121,121,111,119,121,121,122,121,121,121,112,121,120,121,122,121,121,121,112,119,121,121,122,121,120,120,113,122,123,122,122,120,120,121,113,120,122,122,122,120,121,121,113,120,122,120,121,120,121,122,112,118,122,121,122,122,121,121,115,120,117,121,122,121,121,121,111,120,122,121,122,121,121,120,114,120,122,121,122,121,120,121,113,120,122,120,122,122,121,121,112,121,120,121,122,121,120,121,114,118,121,120,122,121,121,120,113,120,122,120,121,121,121,122,115,121,121,121,121,121,121,121,115
120,122,121,122,121,121,120,113,121,122,121,121,121,121,122,114,119,120,120,121,120,121,121,115,120,121,121,122,122,121,122,114,121,122,121,121,121,121,121,114,121,122,121,121,121,121,121,115,117,123,121,123,121,120,120,114,125,114,118,121,121,121,122,118,122,125,122,122,120,120,121,116,119,123,123,122,122,121,122,115,122,123,122,122,121,121,121,119,121,121,121,122,121,121,121,115,120,122,121,121,120,120,121,115,121,122,121,123,121,121,121,116,120,121,121,122,122,121,121,114,121,122,122,122,121,121,121,117
120,121,121,122,121,122,121,117,121,122,122,122,120,118,120,116,121,122,122,123,121,123,121,117,121,121,120,121,121,121,122,119,121,122,121,121,120,121,121,117,120,121,122,122,121,121,122,116,121,121,121,122,122,122,122,116,121,121,120,122,121,120,121,117,120,121,120,121,121,121,122,116,121,121,121,123,121,120,121,117,121,122,122,122,121,121,121,118,121,122,121,122,121,120,121,116,121,122,121,122,121,122,122,118,120,122,121,122,121,121,121,118,119,118,119,121,121,121,121,113,122,123,121,122,122,121,122,120
121,123,121,121,120,121,121,117,120,120,120,121,121,121,121,117,119,121,120,122,121,121,121,116,121,122,122,122,121,121,121,118,121,122,123,123,121,121,122,119,121,121,120,122,121,121,121,118,120,120,120,121,121,121,122,118,120,121,122,122,121,121,121,118,120,121,122,122,121,120,121,118,120,121,121,122,122,121,120,117,120,121,121,122,121,121,121,118,120,120,120,122,121,121,122,118,120,121,121,122,121,121,121,118,119,121,121,121,121,121,122,118,122,121,121,122,122,121,122,118,117,121,121,121,121,121,121,117
124,122,121,122,122,121,121,119,120,123,122,122,121,121,122,119,119,121,121,122,121,120,121,119,120,122,121,122,121,122,121,118,120,122,121,122,122,121,121,118,120,120,119,120,121,121,121,118,121,122,122,123,121,121,121,118,121,122,122,121,121,121,122,118,120,121,121,122,121,121,121,118,120,122,121,122,121,120,120,118,121,122,121,122,121,121,122,118,120,121,121,121,121,122,122,121,120,121,121,121,121,121,122,119,120,121,121,122,121,121,122,120,119,121,121,122,121,122,121,112,123,122,121,121,120,121,121,122
119,121,121,122,122,121,121,116,121,121,120,121,121,121,121,119,120,122,120,122,121,121,121,118,121,121,122,122,121,122,123,120,120,121,121,122,121,120,121,119,120,122,122,121,121,121,122,119,119,121,121,122,121,121,121,118,121,119,121,122,121,120,121,118,122,123,122,122,121,120,121,119,118,119,120,121,121,121,121,119,122,123,122,122,121,120,121,119,120,122,121,122,121,121,122,119,122,122,122,123,121,121,122,119,120,122,121,122,121,121,120,120,120,122,121,122,120,121,121,118,120,120,121,122,121,120,120,120
121,122,121,121,121,121,122,119,119,122,121,122,121,120,120,120,121,121,120,121,121,121,122,119,121,122,122,122,121,121,122,121,121,121,121,123,121,120,121,118,120,121,121,122,121,121,122,119,119,121,121,122,121,120,120,119,123,122,121,121,120,121,121,121,122,122,122,122,121,120,122,120,121,121,121,122,122,122,122,121,120,122,122,122,120,121,121,118,121,123,121,122,121,121,121,120,121,121,121,121,120,120,120,119,119,120,121,122,120,121,122,120,120,123,122,123,121,121,121,119,122,121,121,121,121,121,121,119
120,123,120,122,122,121,121,119,120,122,121,122,122,122,121,120,121,121,120,122,121,121,122,120,121,121,120,121,121,121,121,119,120,122,121,121,121,121,122,120,121,122,122,122,121,120,121,118,122,121,121,122,121,121,122,120,120,122,121,121,121,121,122,121,121,122,121,121,121,121,122,120,119,121,120,122,121,121,121,118,123,122,121,122,121,120,121,121,119,120,121,121,121,121,122,120,121,121,121,122,122,121,121,120,120,122,121,122,122,121,121,119,119,120,120,122,121,121,121,119,121,123,121,122,121,121,122,120
120,122,121,122,121,121,121,120,120,122,121,122,121,121,121,120,122,122,121,122,121,121,121,120,122,123,120,121,121,121,121,120,119,116,120,121,121,121,121,120,120,122,121,122,121,121,121,117,120,122,121,121,121,121,122,120,121,122,121,122,122,121,120,119,120,122,121,122,122,121,121,119,119,121,121,122,121,121,121,120,126,121,121,122,122,121,120,122,119,121,121,122,122,121,121,118,120,121,120,122,121,121,122,119,121,121,121,122,121,121,121,119,118,119,120,122,122,122,121,118,120,121,121,122,121,122,121,121
120,122,121,122,121,122,121,119,120,121,121,121,121,121,121,120,119,120,121,122,122,122,122,119,122,122,121,122,121,121,121,119,121,120,120,121,121,122,122,120,121,122,121,122,121,121,121,120,119,119,120,122,121,121,122,120,121,122,121,121,121,121,122,120,122,123,122,122,120,121,121,120,120,122,121,122,122,121,120,120,118,120,120,122,122,122,121,119,120,122,122,122,121,121,122,120,120,121,121,122,122,121,121,120,121,121,120,122,121,121,121,119,120,122,122,122,122,121,121,120,123,121,121,122,122,122,121,122
118,121,121,122,121,121,122,118,120,123,121,122,121,121,121,119,120,120,120,122,121,121,121,120,121,122,121,122,122,121,122,120,121,122,121,122,122,121,120,119,120,121,121,122,122,121,120,119,121,121,120,121,121,121,122,120,121,122,121,122,122,122,122,120,120,122,122,122,120,120,121,121,122,122,121,122,121,120,121,120,121,122,121,121,121,121,122,120,121,122,121,121,121,121,121,122,121,121,121,121,121,122,122,119,120,122,122,122,120,120,121,120,121,122,120,122,122,121,121,119,120,123,121,121,121,120,121,120
121,121,121,122,121,121,121,119,124,121,121,121,120,121,123,124,122,123,121,121,121,121,121,121,120,122,122,122,121,121,121,119,121,121,122,122,121,121,121,121,120,123,120,122,121,121,122,120,121,120,121,121,121,121,121,119,121,122,121,121,121,121,122,121,120,123,122,121,121,121,121,119,121,122,122,122,121,121,122,119,120,122,121,121,121,121,121,120,121,121,121,122,121,120,121,120,120,122,121,122,121,121,121,121,119,121,121,122,122,121,120,119,120,122,121,122,121,121,121,119,120,122,121,122,121,121,121,120
122,121,121,122,122,121,121,121,120,122,122,122,121,122,122,120,121,122,120,121,121,121,121,119,121,122,120,121,121,121,121,119,121,122,121,123,121,120,120,120,120,121,120,121,121,121,121,120,121,122,122,122,121,121,121,119,120,121,121,122,122,120,121,120,120,123,122,122,120,120,121,119,121,121,121,122,121,120,121,120,122,123,121,122,121,121,122,120,120,122,121,122,121,120,122,122,121,121,120,121,121,121,122,122,121,122,121,122,122,121,121,119,121,120,121,122,122,121,121,120,120,122,121,122,121,121,120,121
121,122,121,122,120,121,122,121,120,121,120,121,121,121,122,121,120,120,120,122,121,121,121,119,121,122,121,122,122,121,121,120,120,121,121,122,122,121,122,120,121,121,121,121,121,121,121,122,120,122,120,122,121,121,121,120,120,121,121,121,121,122,123,122,121,122,121,122,121,120,121,120,118,120,121,122,121,122,121,120,121,122,121,122,122,121,120,119,120,122,121,122,122,121,121,119,120,122,122,122,121,121,121,120,120,121,121,122,121,121,122,119,121,120,120,122,121,121,121,121,120,122,121,122,122,122,122,120
120,121,121,122,121,121,121,119,123,121,120,122,121,121,121,119,121,121,121,122,122,121,121,120,120,121,121,122,122,121,121,119,121,122,121,122,121,122,122,119,120,122,121,122,122,121,121,120,121,121,121,121,120,120,120,120,119,119,121,122,121,121,121,120,121,123,121,122,121,120,121,121,121,121,121,122,121,122,121,120,121,121,120,121,121,121,121,122,121,121,121,122,121,121,123,120,121,122,120,121,121,121,121,120,119,121,120,122,121,121,120,118,120,122,122,122,122,121,120,119,120,121,120,122,121,122,121,120
121,122,121,121,121,121,121,121,120,121,121,122,121,121,121,120,121,122,121,122,121,122,122,118,120,121,121,122,121,122,122,122,120,121,120,121,121,121,121,120,120,121,121,122,121,120,121,119,119,121,121,121,120,121,121,119,121,123,122,122,121,121,122,120,120,123,121,121,121,121,122,121,122,121,120,122,121,121,122,120,121,122,121,121,120,120,121,120,121,123,121,121,121,121,122,120,119,122,121,122,121,121,121,120,121,121,121,121,120,121,121,120,121,122,121,121,121,121,121,121,121,122,121,122,120,121,122,120
119,120,121,122,121,121,122,118,121,122,121,121,121,121,122,123,120,122,121,122,121,120,121,120,121,122,121,121,121,121,122,120,120,122,121,123,121,121,122,120,121,121,121,122,121,120,121,119,121,122,121,122,121,120,120,120,120,120,121,122,120,121,122,122,121,122,121,121,120,121,121,121,121,122,121,122,121,122,121,119,118,119,120,121,121,121,121,120,122,123,121,121,121,120,121,120,120,122,122,123,121,120,121,120,121,123,121,122,121,122,122,121,120,122,121,121,121,121,122,121,120,121,121,121,121,120,121,120
120,122,122,122,121,120,121,121,120,122,121,122,120,121,121,120,123,121,121,121,121,120,121,120,120,121,120,121,121,121,122,122,121,121,120,122,121,121,122,122,121,121,121,121,120,121,121,120,121,122,122,122,122,122,121,121,121,121,120,122,121,121,121,121,121,121,120,121,121,121,122,120,120,121,120,121,121,121,121,121,121,122,122,123,121,121,122,120,121,121,121,121,121,121,122,120,121,121,121,121,121,121,121,120,119,121,121,122,121,121,122,121,121,122,120,122,121,121,121,120,121,122,121,122,122,121,120,120
120,120,121,122,122,121,122,120,121,121,121,122,121,121,120,120,119,121,120,122,121,121,122,119,122,120,121,121,121,121,122,120,122,122,121,122,122,121,121,121,119,122,121,122,121,121,121,119,118,118,120,122,122,121,122,120,121,124,122,123,121,122,122,121,121,121,121,122,122,121,120,119,119,120,121,122,121,121,122,120,120,122,121,122,121,121,120,120,121,122,121,121,121,121,121,120,120,121,121,122,121,121,121,119,121,121,121,122,121,121,121,120,120,121,121,122,122,122,122,121,120,121,120,121,121,121,121,120
122,122,121,122,122,122,122,121,120,121,121,122,121,121,122,120,123,122,121,122,121,121,122,120,118,118,120,122,121,121,121,120,120,122,121,122,121,121,121,120,121,122,121,122,122,121,121,119,121,122,121,122,121,121,121,120,121,121,121,123,121,120,122,120,124,122,120,121,121,121,122,122,121,123,122,122,121,121,122,121,120,120,121,122,122,121,121,119,119,122,122,122,121,122,122,119,121,118,120,122,121,122,121,120,122,122,120,122,122,121,120,120,120,121,121,121,121,121,122,121,121,121,121,122,122,121,121,120
120,122,120,121,122,121,121,120,122,120,120,121,121,121,121,120,120,122,121,122,122,121,120,120,120,121,121,122,121,121,121,121,120,121,120,121,121,121,122,120,120,121,121,122,121,120,121,119,123,122,122,123,121,121,121,121,119,123,122,121,121,121,122,122,120,121,120,121,121,121,122,121,120,122,121,122,120,121,121,120,121,122,122,122,121,120,121,120,120,121,121,122,121,120,121,120,120,122,121,122,121,122,121,122,121,121,121,121,121,121,121,119,120,122,121,122,121,120,122,121,119,121,121,122,121,121,121,118
121,120,121,121,121,121,121,122,121,122,121,121,120,120,121,120,120,122,121,122,120,120,121,119,120,122,122,122,122,121,123,121,120,122,121,122,121,121,120,119,123,122,121,122,121,121,123,123,119,121,122,121,120,120,120,121,121,122,120,121,121,121,121,120,121,122,120,122,121,122,122,120,121,121,122,122,120,120,121,121,119,120,120,122,121,121,122,120,121,121,120,121,121,121,121,121,121,123,122,122,121,121,121,121,120,122,121,122,121,121,121,120,123,121,121,122,121,120,121,120,120,121,121,122,121,121,121,120
120,123,120,121,121,121,121,119,119,120,121,121,121,121,122,121,121,121,120,121,121,122,121,119,120,122,121,122,120,120,121,120,121,123,122,122,120,121,122,121,120,123,122,122,121,122,122,121,122,120,119,121,121,121,121,120,120,121,121,121,121,121,122,120,121,122,120,122,121,121,122,121,121,122,121,121,121,121,121,119,120,122,121,122,121,121,121,120,121,122,120,121,121,121,121,121,120,121,121,122,121,121,121,118,120,120,120,122,121,121,121,120,120,121,120,122,121,121,122,121,122,120,121,122,121,122,121,119
119,120,120,121,121,122,120,119,119,122,121,122,122,121,121,120,120,121,121,122,120,120,121,121,121,122,122,122,121,121,121,121,119,122,122,122,121,120,121,120,122,121,122,122,121,120,121,121,121,122,120,122,122,122,122,120,120,122,121,122,121,121,121,120,121,121,121,122,121,121,121,119,120,120,121,122,122,121,122,120,121,122,121,122,121,121,122,122,121,121,120,122,121,121,121,121,121,121,121,122,121,122,122,120,119,120,120,121,121,121,122,121,120,121,121,122,122,121,121,120,121,122,121,122,121,120,121,120
122,121,121,122,122,121,121,122,119,121,120,122,121,121,121,120,124,121,120,121,121,121,121,121,119,122,122,122,121,121,122,121,120,122,121,122,121,122,122,120,120,121,120,122,121,121,122,121,121,119,121,122,121,121,121,121,120,122,122,122,121,121,121,121,120,121,122,122,122,121,121,120,120,121,121,122,121,120,121,120,120,121,121,122,121,120,121,120,120,122,121,122,121,121,121,120,121,121,122,122,122,122,121,121,121,121,121,121,120,121,121,121,120,122,121,122,121,122,121,119,121,121,121,122,122,120,121,120
121,122,121,122,121,121,122,121,119,122,121,122,122,120,121,119,120,120,121,122,121,121,121,119,122,122,121,122,122,122,121,119,119,122,122,122,121,121,120,120,121,122,120,121,121,121,121,120,120,121,120,121,121,120,122,122,121,123,122,122,121,120,121,119,119,121,122,121,120,120,121,121,121,122,121,123,121,121,121,119,121,122,121,122,121,120,121,120,120,121,121,122,122,121,121,119,121,122,121,122,121,120,121,120,121,122,121,122,122,121,121,120,121,122,121,121,121,121,122,120,121,121,120,121,121,121,121,121
122,122,120,121,121,121,122,120,119,121,122,122,121,120,121,120,121,121,121,121,120,121,121,120,121,122,121,120,121,121,121,121,119,121,120,121,121,121,121,120,124,121,120,122,121,121,121,121,118,121,121,121,121,121,121,120,120,120,121,122,121,121,121,120,120,123,121,121,121,120,121,121,121,123,120,121,121,121,122,121,120,119,121,123,121,121,122,121,120,122,121,122,120,121,121,120,122,122,121,122,121,120,120,121,120,122,120,121,121,121,122,120,120,121,121,122,121,121,121,119,120,121,120,122,121,121,122,119
121,121,121,122,121,122,121,122,121,122,121,121,121,121,121,120,121,122,120,121,121,121,121,120,120,121,121,122,121,121,121,120,120,121,120,121,121,121,121,120,121,122,121,121,120,121,121,120,121,122,122,122,121,120,120,121,119,120,122,122,122,121,120,121,122,121,120,122,121,121,121,120,121,121,120,121,121,121,121,120,120,122,121,121,121,120,121,121,122,121,121,122,122,122,122,120,120,122,121,122,122,121,121,121,121,122,121,122,121,121,122,120,120,122,121,122,121,120,121,121,122,121,121,122,121,121,121,120
119,119,120,122,121,122,122,121,121,122,121,122,121,120,120,120,120,121,121,122,121,122,122,120,121,122,121,122,121,120,121,120,120,120,122,121,121,121,121,121,122,121,120,122,121,122,121,120,121,123,121,121,121,121,121,120,120,121,121,122,121,121,121,120,121,121,120,121,121,121,122,121,120,123,121,121,121,121,121,121,119,120,121,122,122,121,120,120,123,121,120,121,121,121,121,120,119,122,121,122,121,122,121,120,120,121,120,122,122,122,122,121,120,121,121,122,122,121,121,119,119,120,121,122,120,120,121,120
122,122,121,121,120,121,122,119,119,122,121,122,121,121,121,120,123,120,120,122,121,121,121,120,119,120,121,122,121,122,121,118,121,122,122,122,121,121,121,121,120,121,122,122,120,121,121,120,121,123,122,122,121,121,122,121,120,121,121,122,122,121,121,120,121,122,121,121,120,121,121,120,120,122,121,122,121,122,121,119,120,121,121,122,121,121,122,120,121,123,120,121,121,121,121,120,119,121,121,122,122,122,121,120,120,121,121,122,122,121,120,119,119,120,121,122,122,122,121,119,121,123,121,121,121,121,121,120
120,122,122,122,121,120,121,120,121,122,120,122,121,121,120,120,121,120,120,122,121,121,122,121,120,122,122,123,122,122,122,121,121,121,122,122,120,121,121,118,121,122,121,122,121,120,121,121,120,120,120,121,121,121,122,122,120,122,121,122,122,121,121,119,120,122,121,122,122,121,121,119,121,121,120,122,121,121,122,121,120,121,121,121,121,121,122,121,121,122,121,122,121,121,121,120,120,121,120,121,121,121,122,121,120,122,121,122,121,120,121,120,120,121,121,122,121,122,122,122,120,122,121,121,120,121,121,119
122,122,122,121,121,121,122,121,119,122,122,122,121,120,121,120,120,121,120,122,122,121,120,120,121,123,121,122,120,121,121,121,120,121,122,122,121,120,121,121,120,121,121,122,121,120,121,120,120,121,121,121,121,121,121,121,120,122,121,121,121,120,121,120,120,122,121,121,121,121,121,122,121,123,121,122,121,122,122,121,120,123,121,121,121,121,121,121,121,120,122,121,120,121,121,121,120,122,121,122,121,121,120,119,120,120,121,122,121,120,121,120,120,122,120,121,121,121,122,121,121,122,121,122,121,122,121,119
120,121,121,121,121,121,121,121,120,122,120,121,121,121,121,120,121,121,122,122,121,121,121,120,121,122,120,122,121,121,122,122,119,119,121,122,122,121,120,120,121,122,121,122,121,121,121,121,121,123,121,122,122,122,122,121,121,122,120,121,121,121,121,120,120,120,121,122,121,121,121,120,119,123,122,122,120,121,122,120,121,122,121,122,122,121,120,119,121,121,121,122,121,120,121,117,121,122,121,123,121,121,121,121,118,121,121,122,121,121,121,120,121,122,121,122,121,122,121,119,119,121,122,122,121,121,121,119
122,121,121,122,121,121,120,119,119,119,119,121,121,121,122,119,121,121,121,122,121,121,121,121,120,121,121,121,121,121,121,120,120,122,122,122,121,120,121,120,121,121,121,122,121,120,121,120,118,120,120,121,121,121,122,120,121,121,121,122,122,121,122,121,121,123,120,121,121,121,122,121,120,121,120,121,121,121,122,121,119,121,120,122,121,121,121,119,122,121,121,122,122,122,122,120,120,122,121,123,122,122,122,120,123,122,121,122,121,121,121,121,120,120,119,121,121,121,122,121,120,120,121,122,122,121,121,119
120,121,121,122,122,120,121,120,121,122,121,121,120,121,121,118,120,121,121,122,122,121,121,120,120,120,120,122,121,121,122,121,120,121,121,122,121,121,121,120,122,122,121,122,122,122,122,121,120,121,120,121,121,121,121,120,121,121,121,122,122,121,121,119,119,121,121,122,122,121,121,120,119,122,122,122,121,121,122,121,122,119,120,122,121,121,122,121,120,120,120,121,121,121,121,120,121,123,122,122,121,120,122,121,119,120,121,121,121,121,121,120,122,123,122,122,120,120,121,120,121,121,121,122,122,121,121,122
120,121,121,122,121,122,121,120,120,122,121,122,121,121,121,120,121,122,120,122,121,121,122,121,121,122,122,121,121,121,121,120,121,121,121,122,122,121,121,120,120,122,121,122,120,120,121,118,120,121,121,122,121,122,121,122,120,121,121,122,121,121,121,121,120,122,121,122,121,120,121,121,120,120,120,121,121,121,121,121,121,122,121,122,120,120,121,120,119,122,121,122,121,121,121,119,121,118,120,122,121,121,122,121,122,121,120,122,121,121,122,121,120,122,121,122,121,122,121,120,120,122,121,122,122,121,121,119
120,121,121,122,122,121,121,119,121,122,120,122,121,120,121,120,122,122,120,121,121,121,121,120,119,121,121,122,121,121,121,121,121,121,121,122,121,120,121,120,121,123,121,121,121,121,121,120,121,122,121,121,121,121,121,121,120,121,121,122,122,121,121,120,122,122,121,122,121,122,122,120,120,122,121,122,122,120,121,120,121,122,121,121,121,121,122,122,121,122,121,122,120,120,121,120,120,122,121,123,120,122,122,121,120,122,122,122,120,120,121,118,121,122,120,121,121,121,122,121,120,122,122,122,121,121,121,120
120,121,121,122,121,121,120,120,121,121,121,122,121,121,121,120,119,121,121,122,122,121,121,119,120,122,121,122,121,120,121,120,120,123,122,122,120,121,121,121,119,119,120,121,122,121,121,119,122,122,121,121,121,121,121,121,120,122,121,121,121,121,121,121,120,122,121,121,121,121,121,120,122,120,120,122,121,122,122,121,120,123,121,121,121,121,121,121,121,122,121,122,120,121,122,121,120,122,122,122,122,121,120,119,120,120,121,122,122,121,121,120,121,121,120,122,121,122,121,120,121,121,121,121,121,121,122,121
120,120,120,121,122,121,121,119,120,121,121,122,121,121,121,120,122,121,121,122,121,122,121,119,119,121,121,122,121,120,121,120,120,123,121,121,121,121,122,121,119,119,119,121,121,122,122,120,120,122,122,122,122,122,121,120,120,121,120,122,121,121,122,121,121,122,121,122,121,121,121,121,120,121,120,121,121,121,122,120,120,121,120,122,122,121,120,119,120,121,121,122,121,121,121,122,121,122,120,121,121,121,122,117,120,122,121,122,121,121,121,120,120,121,121,122,121,120,121,120,121,121,121,122,121,121,120,120
120,121,121,122,122,121,121,121,120,122,121,122,122,122,122,120,121,120,121,122,121,121,122,120,118,121,121,122,121,121,122,121,121,121,121,122,121,121,122,121,121,123,122,122,121,120,121,120,120,121,121,122,121,121,121,121,120,122,122,122,121,121,121,121,121,122,120,121,121,121,121,121,121,122,122,122,121,120,121,121,118,120,121,121,122,121,122,119,122,120,121,122,121,121,121,120,121,123,121,122,121,121,122,121,121,120,121,121,121,121,121,120,121,121,121,122,121,122,122,119,120,122,121,122,121,122,122,120
120,121,121,122,122,121,121,120,120,122,121,122,121,120,121,120,121,123,121,121,121,121,121,120,120,120,120,121,121,121,122,120,121,122,121,121,121,121,122,121,122,122,121,121,121,122,122,121,118,121,121,122,121,121,122,121,121,122,122,121,121,121,121,120,123,120,120,121,121,122,121,120,120,121,120,121,121,121,121,120,121,122,121,122,121,120,121,121,119,122,122,122,120,120,121,120,121,121,121,122,121,121,121,121,120,121,121,122,121,120,120,119,121,122,120,121,121,121,121,121,121,121,121,121,120,121,121,120
121,122,121,121,121,121,121,121,120,121,121,121,121,121,121,121,120,122,121,122,121,121,121,120,120,122,122,121,121,121,122,120,119,122,122,122,122,121,120,120,122,120,120,122,121,120,121,121,121,123,121,122,122,121,122,121,119,122,122,122,120,121,121,119,120,122,122,122,121,121,121,120,120,121,121,122,122,121,120,120,121,122,120,121,121,121,121,120,120,122,121,122,122,121,121,122,121,121,121,122,121,121,121,119,120,121,121,121,121,121,121,121,119,122,121,121,120,121,121,120,123,122,121,121,121,121,121,121
120,122,121,121,121,121,121,121,120,121,121,122,121,121,121,119,121,122,122,122,120,121,121,121,121,121,121,121,121,121,121,121,121,122,120,121,121,121,121,120,120,122,120,121,120,121,121,121,120,121,121,122,121,120,120,120,120,120,121,122,121,121,122,120,121,120,121,122,121,122,122,120,118,120,121,121,121,121,122,120,121,122,121,123,122,121,120,120,121,122,122,122,120,121,122,120,121,122,120,122,121,122,122,122,119,121,121,122,121,121,122,120,118,120,121,122,122,121,121,119,122,121,121,122,121,121,122,120
120,123,121,122,122,121,122,121,123,121,120,121,121,121,122,121,120,121,120,121,121,121,122,120,120,122,120,121,121,121,121,120,121,120,122,121,121,121,121,121,121,123,121,121,121,121,121,120,121,122,120,121,121,121,122,121,119,120,121,122,121,120,121,119,120,121,121,122,121,121,122,120,120,122,121,122,122,122,122,120,119,121,121,122,121,121,120,119,119,121,121,122,121,121,122,120,122,120,121,121,120,121,121,120,119,121,121,122,121,122,122,120,119,120,120,122,121,122,121,120,120,122,122,122,121,120,120,119
120,121,121,122,121,121,121,119,121,122,122,123,121,120,121,120,118,121,121,122,121,121,121,119,123,121,120,121,121,121,121,121,121,121,120,121,121,121,122,121,121,122,122,122,120,121,121,120,121,123,122,122,121,121,121,122,121,122,121,121,121,121,122,121,120,119,121,122,121,120,121,121,121,122,121,121,121,121,121,120,121,120,120,122,121,121,121,121,120,123,122,123,122,122,121,120,119,121,121,122,121,121,120,120,120,121,121,122,122,121,121,121,121,122,122,122,120,121,121,120,119,123,122,122,121,122,122,121
122,121,121,123,121,120,121,121,120,123,121,122,122,121,121,119,122,122,120,121,121,121,121,121,119,122,121,122,121,120,121,120,120,121,121,122,121,122,121,120,121,122,120,121,121,121,121,121,121,120,120,121,121,121,121,121,120,122,121,122,121,121,122,120,120,121,121,122,122,121,120,120,121,120,119,121,121,121,121,122,121,123,121,121,121,121,121,120,120,122,122,122,121,121,121,121,121,123,122,122,121,122,122,120,123,123,121,122,121,120,120,120,118,119,120,122,121,121,121,119,121,121,121,122,121,120,121,120
121,123,121,122,122,120,121,122,120,122,121,122,121,121,122,118,122,121,120,121,120,121,121,121,120,122,121,122,121,120,121,120,120,122,121,122,120,121,121,120,120,121,121,122,121,121,120,120,123,121,119,121,121,121,121,121,120,121,120,121,121,121,122,121,121,122,121,121,121,120,121,121,120,122,121,121,121,122,122,122,121,122,122,122,121,121,121,120,120,122,121,122,121,120,121,120,121,122,121,122,120,121,121,120,120,120,121,122,121,121,122,120,121,122,120,121,121,121,121,121,120,122,122,122,121,121,121,121
120,121,121,121,120,121,121,120,121,122,121,122,121,120,121,120,120,121,121,122,121,121,122,121,119,121,121,122,121,121,121,120,121,122,121,122,121,122,121,121,119,121,121,122,121,121,122,122,121,120,121,122,121,121,122,120,119,122,121,122,121,121,121,120,120,122,120,121,121,121,121,120,121,121,121,121,120,121,121,120,121,122,122,122,120,121,121,121,122,122,122,121,121,120,121,121,120,121,121,122,121,121,121,120,120,120,121,121,121,121,122,120,120,122,121,122,121,120,121,120,120,122,121,121,121,121,122,120
120,121,121,122,121,120,120,120,121,122,122,122,120,120,121,120,121,122,121,122,121,121,121,120,120,122,121,122,122,122,122,121,120,121,121,122,121,121,121,119,121,122,120,121,121,121,122,121,120,121,120,121,121,121,121,119,122,121,121,122,122,122,122,122,119,122,122,123,122,121,121,120,123,121,122,122,121,120,121,122,120,119,120,121,121,121,122,121,120,121,121,122,121,121,123,122,120,120,120,122,121,121,121,120,120,123,121,122,120,121,121,121,120,121,121,122,121,121,121,119,121,120,120,121,121,121,122,121
120,122,121,122,121,121,121,121,121,122,121,122,122,122,121,119,121,121,121,122,121,121,122,121,121,121,121,122,121,121,121,121,121,122,121,122,121,121,121,120,119,120,121,123,121,122,121,121,122,122,121,122,120,120,121,120,121,120,121,122,122,122,122,122,120,121,120,122,121,121,122,121,119,120,121,121,121,121,121,120,119,121,121,122,122,121,121,120,119,121,121,122,121,121,121,119,121,121,121,122,121,121,122,121,119,120,120,122,121,121,122,120,120,119,120,121,121,121,121,121,120,123,121,122,121,120,121,119
120,121,121,121,121,121,122,121,121,121,121,122,121,121,121,121,119,124,120,122,122,122,122,122,120,118,121,122,122,121,121,121,122,122,122,122,121,121,121,120,120,123,120,121,121,121,121,120,121,123,122,121,120,121,122,121,121,122,121,121,121,121,121,121,121,122,121,122,121,121,120,119,121,121,121,121,121,121,121,121,120,121,121,122,122,120,120,120,121,122,122,122,121,120,121,120,120,121,120,122,121,121,122,121,119,122,121,122,122,121,120,120,123,122,121,121,120,120,121,119,119,121,121,122,121,121,122,123
118,118,120,122,121,120,120,118,124,122,121,122,121,120,120,120,112,123,121,122,121,121,121,118,122,123,121,122,122,121,121,120,122,117,120,122,122,121,122,123,119,122,121,121,121,121,121,120,119,121,120,122,121,121,121,119,121,122,121,121,121,120,121,121,121,120,120,121,121,121,121,119,121,123,122,122,120,121,121,119,121,122,122,122,121,120,121,122,121,122,121,121,121,121,121,121,120,121,121,122,122,121,121,120,120,122,121,122,121,121,122,120,121,121,120,122,121,121,121,118,119,118,120,122,121,121,121,120
119,124,122,122,121,121,121,118,118,121,121,122,122,121,121,119,123,123,121,122,120,121,121,125,117,121,121,122,121,121,122,118,119,122,122,123,122,120,120,120,123,122,121,121,121,121,121,121,120,122,120,121,120,121,121,120,119,120,120,122,121,121,122,120,121,123,121,121,120,121,121,121,120,120,121,122,122,121,121,120,121,123,121,122,121,121,122,121,122,123,121,121,121,121,123,122,119,118,121,121,121,121,122,120,127,120,120,121,121,122,122,122,115,120,119,121,121,121,121,119,123,122,121,122,121,121,121,121
116,123,122,122,121,121,120,119,122,120,121,122,121,121,121,120,122,123,121,122,121,121,122,119,118,119,120,122,121,121,122,120,120,123,122,122,121,121,121,121,119,122,121,121,120,121,121,119,122,122,120,121,121,121,121,121,121,123,121,122,122,121,121,118,121,121,121,122,120,120,121,121,123,120,120,121,121,121,122,120,120,122,121,122,122,121,122,124,122,122,121,122,121,121,121,120,120,122,121,122,121,122,121,120,120,120,121,122,122,121,120,118,119,120,121,121,120,121,121,120,118,121,121,122,121,122,122,120
124,122,122,122,122,121,121,118,118,122,121,122,122,121,121,119,118,121,120,121,121,121,121,119,120,121,121,122,121,120,121,120,126,119,120,122,121,121,121,119,116,122,120,121,122,125,122,123,121,123,121,122,121,120,122,117,122,121,121,122,122,121,121,123,121,120,121,122,121,121,120,122,122,122,121,122,121,121,122,121,130,120,121,121,121,121,122,124,108,121,121,123,122,121,121,117,129,122,121,122,120,121,121,119,117,122,121,121,123,120,120,123,122,121,121,122,122,122,122,118,122,121,121,122,121,121,121,121
124,120,120,121,121,119,120,119,114,121,121,122,121,121,121,120,115,122,122,122,121,121,121,121,130,125,123,123,122,124,127,132,120,122,121,121,120,120,120,122,123,119,119,121,118,140,120,119,113,122,120,122,129,107,123,125,130,123,121,120,121,119,119,127,130,126,124,125,124,126,129,139,114,121,122,122,121,120,119,106,123,120,120,122,121,120,120,117,128,119,120,122,122,121,120,115,113,123,123,121,118,124,120,123,136,122,120,123,127,130,120,120,108,121,120,122,120,118,121,118,120,121,121,122,121,121,121,118
123,121,121,122,122,121,121,122,121,121,121,121,119,119,121,120,120,121,121,122,125,119,120,120,125,122,121,122,121,123,121,121,118,121,121,122,122,124,124,128,122,121,121,122,119,117,119,116,117,120,120,121,122,120,121,123,117,122,121,122,121,122,121,116,124,122,121,123,121,117,120,122,115,124,122,122,122,124,125,128,123,122,121,121,120,121,119,119,123,119,120,121,121,121,120,117,127,122,122,122,119,120,122,124,129,121,121,123,125,126,122,126,122,121,120,122,121,110,120,123,124,122,122,122,120,126,121,118
118,120,121,121,121,120,123,121,119,121,121,123,122,121,121,118,120,121,121,121,120,121,121,120,123,122,121,121,121,120,122,122,117,121,121,122,119,119,117,117,123,121,120,121,122,124,122,120,131,121,121,121,115,116,119,119,103,121,121,122,122,131,120,109,126,122,121,122,118,113,123,134,110,120,120,121,119,118,119,105,123,123,122,122,126,123,119,125,122,121,120,122,118,115,122,119,117,123,121,121,122,121,119,116,142,119,119,120,119,122,123,122,116,121,120,121,121,121,121,118,108,122,121,123,122,123,122,128
129,120,121,121,119,122,120,118,120,121,121,122,127,117,119,115,122,121,121,122,120,120,119,118,108,124,121,122,122,147,125,115,126,121,121,122,119,109,123,129,122,121,121,121,120,115,116,115,116,122,121,122,122,125,120,115,125,121,121,122,124,129,123,125,132,120,120,120,115,105,121,127,110,120,120,121,120,152,124,125,113,120,121,122,123,121,121,115,123,119,119,119,116,114,117,100,122,121,121,122,127,138,121,131,136,125,122,123,133,112,130,134,116,121,122,127,123,99,121,125,106,123,121,121,123,122,118,118
122,120,121,121,118,119,119,105,115,120,121,122,125,129,120,119,110,121,121,121,121,123,121,97,119,121,120,121,118,114,119,128,134,120,121,121,125,134,128,134,110,121,121,124,122,130,120,120,106,122,121,122,118,125,121,116,128,121,122,122,128,118,119,118,113,121,120,121,113,105,119,119,121,122,121,123,134,127,122,118,112,122,120,121,121,132,121,120,131,124,122,123,121,119,120,118,113,121,122,123,123,126,119,122,111,121,121,122,121,118,118,110,109,121,121,122,125,131,128,122,136,120,120,121,119,125,122,136
112,120,118,121,119,118,119,106,124,126,128,122,122,129,124,137,120,121,123,122,113,84,117,107,87,120,119,124,132,128,126,127,132,123,122,123,120,120,121,116,118,119,119,122,115,130,124,121,147,123,122,122,121,122,124,137,113,121,120,120,119,125,118,115,114,120,120,122,121,117,117,106,128,123,122,122,120,125,124,138,118,122,121,122,120,118,119,118,117,120,120,121,121,122,119,101,120,123,122,122,124,138,126,119,140,121,121,121,113,106,122,149,95,120,121,121,122,138,118,90,160,123,120,121,119,111,123,154
103,122,123,123,121,128,126,120,124,119,120,119,116,105,117,107,133,121,121,123,121,110,118,130,79,119,119,120,122,126,122,94,185,125,124,124,121,121,125,169,114,122,121,122,124,117,120,116,120,121,122,122,118,160,129,110,106,122,121,123,129,142,119,120,126,123,123,122,118,107,120,112,135,119,123,121,120,122,125,139,137,126,123,123,122,127,126,143,121,122,119,120,120,108,114,127,131,119,120,120,124,137,123,123,127,122,123,124,121,139,119,118,123,121,120,121,118,124,121,119,117,121,121,121,119,120,120,100
126,122,121,121,120,124,128,144,125,122,121,124,122,141,121,115,136,118,118,118,121,126,118,112,96,124,124,125,123,124,124,116,140,124,122,123,118,113,126,143,119,120,121,123,117,124,115,109,135,123,123,125,123,129,123,122,106,119,119,121,122,122,119,107,138,125,122,123,122,121,126,141,123,121,122,122,121,121,120,117,125,123,122,122,121,126,122,117,112,120,119,121,120,116,118,116,127,123,122,121,115,116,122,124,107,120,120,122,122,123,121,126,133,121,120,120,110,89,121,116,104,118,120,120,118,97,112,109
123,122,119,119,112,105,122,91,106,124,123,124,121,129,125,146,103,120,119,118,107,131,123,110,125,119,120,121,125,121,110,109,130,122,122,126,122,111,120,127,130,121,119,117,122,127,118,110,108,123,122,122,118,118,126,129,124,121,121,121,117,103,116,112,108,120,121,122,121,135,124,116,123,119,121,123,121,114,118,111,132,122,120,120,121,117,117,123,114,125,123,123,122,120,119,118,125,124,123,123,123,121,124,134,132,120,121,123,121,119,121,127,138,122,121,123,124,109,119,116,110,118,120,120,122,104,112,75
106,120,118,116,109,87,118,124,89,127,124,125,125,127,127,98,165,123,123,124,118,110,133,175,116,119,120,119,139,143,120,88,114,119,120,121,120,131,121,98,127,118,120,120,113,96,113,111,108,122,120,122,128,121,119,117,119,125,125,124,119,99,120,139,127,122,122,128,125,136,126,124,131,120,120,120,115,109,118,137,109,119,121,123,120,141,120,107,109,120,121,122,121,118,121,113,122,121,121,122,120,115,119,122,106,121,120,121,120,140,121,110,132,117,121,123,119,92,118,121,132,122,120,120,118,131,120,114
132,124,123,124,122,116,125,124,142,124,122,124,127,126,126,146,104,117,118,119,117,113,113,83,162,121,121,122,111,108,123,150,113,125,124,124,124,143,128,110,174,123,121,121,120,121,133,157,117,119,119,120,117,111,120,123,131,120,119,118,119,91,121,128,130,122,121,124,121,119,121,133,118,121,121,120,116,120,124,140,114,120,121,123,119,121,124,115,135,125,124,124,123,117,119,124,113,121,120,123,120,131,121,118,110,122,121,120,121,125,125,121,114,122,121,122,118,109,118,120,109,120,121,124,146,122,120,119
122,122,120,120,112,127,121,127,116,120,119,119,122,124,117,121,110,120,119,120,115,120,119,107,96,122,121,122,120,120,120,118,127,124,122,123,122,123,125,132,110,118,118,120,120,120,116,99,119,120,120,120,122,135,125,102,135,123,122,123,123,130,119,155,121,120,119,120,119,115,119,107,140,121,122,122,118,93,125,128,125,124,123,122,122,147,122,122,116,123,121,122,115,84,131,125,121,119,119,118,119,112,117,100,108,120,120,122,126,118,119,129,121,120,122,122,119,119,117,116,123,122,121,121,121,130,122,119
123,122,121,121,118,118,120,118,137,124,122,123,122,123,121,141,123,127,124,124,122,125,129,170,109,118,120,119,116,112,120,112,150,122,121,123,123,101,118,118,92,122,122,122,119,113,117,101,146,123,121,122,119,122,125,142,121,121,122,121,118,109,120,117,117,120,121,121,117,102,118,113,120,119,118,120,120,120,119,101,113,121,120,120,120,141,124,122,145,125,125,126,118,131,122,139,114,119,121,124,138,134,120,116,125,122,121,123,114,106,121,119,119,121,121,122,126,117,118,111,116,123,122,123,116,126,123,139
119,120,120,125,126,120,123,122,118,120,121,124,122,120,118,113,105,121,120,120,120,125,120,115,130,123,121,122,123,130,122,107,120,123,123,124,124,114,126,144,105,120,120,121,119,110,116,105,157,122,121,122,121,121,126,161,107,120,120,122,121,120,121,106,104,121,121,121,114,111,119,112,123,123,123,124,120,97,124,128,124,120,120,120,117,120,117,109,141,123,122,122,120,125,127,149,100,119,119,121,119,120,120,112,114,121,122,121,113,123,119,115,116,121,119,121,132,131,123,120,129,124,123,123,127,122,123,133
121,122,121,122,118,121,123,115,123,121,121,121,116,107,121,113,128,121,120,122,124,115,124,136,102,120,119,119,126,135,124,132,138,120,120,120,115,95,118,130,128,121,121,124,130,124,123,116,135,123,120,122,122,137,119,115,134,122,122,121,115,119,122,137,109,120,120,122,121,116,119,94,134,122,121,123,120,125,124,138,145,120,120,118,112,116,117,93,112,124,123,127,132,155,128,133,117,119,120,122,122,127,117,104,127,120,120,121,119,122,122,122,117,121,121,120,108,117,121,115,111,120,121,124,147,145,121,118
126,121,119,120,122,109,124,126,101,121,122,124,128,123,121,113,123,121,121,122,118,118,121,123,114,121,121,121,121,120,124,118,125,121,120,121,119,120,120,119,103,119,119,122,130,123,120,106,141,127,124,123,122,123,124,118,118,120,123,123,123,126,126,139,114,118,118,120,121,121,120,113,118,120,120,121,122,118,118,100,120,119,119,120,119,111,120,115,113,126,125,125,129,129,125,131,134,121,121,122,123,102,121,112,110,122,120,121,121,138,124,145,117,120,119,118,114,110,118,112,120,120,121,124,131,120,121,119
114,121,122,123,121,111,121,119,120,122,121,125,121,112,118,118,113,121,121,122,130,121,121,116,126,122,121,121,115,128,118,118,116,119,119,120,128,109,123,112,122,124,123,124,114,125,120,134,122,123,121,122,126,120,119,111,139,121,122,122,120,113,120,115,90,119,119,121,119,117,115,98,157,124,123,124,126,126,126,152,133,124,121,123,121,115,122,124,150,123,122,121,118,121,130,174,88,120,119,120,119,107,119,115,130,120,119,120,123,133,122,110,121,122,121,121,124,114,121,115,114,124,122,121,116,118,124,134
126,123,122,122,121,112,121,126,117,120,120,122,118,134,120,106,110,121,121,120,117,119,124,115,103,122,122,122,116,114,121,122,138,122,122,123,120,121,122,118,119,121,121,120,115,102,120,121,139,120,120,120,126,138,121,129,106,123,122,121,120,120,118,112,144,119,121,122,128,122,122,136,118,124,120,122,121,121,125,136,107,119,120,122,120,119,118,105,118,121,121,122,118,109,122,125,114,121,121,122,119,128,118,110,114,123,122,122,132,123,123,128,136,122,121,121,115,112,125,157,126,122,121,121,129,139,119,109
117,121,120,121,125,162,119,105,122,123,122,123,118,129,124,144,124,121,121,121,117,117,118,112,135,122,122,124,131,125,124,125,120,122,121,120,116,107,118,121,132,121,120,121,120,123,120,125,113,121,121,122,122,124,121,114,111,119,119,119,116,120,121,112,134,121,120,122,121,120,124,122,135,124,122,121,119,128,121,123,120,121,120,122,118,130,119,115,105,119,118,121,123,123,117,111,130,125,123,122,124,120,122,101,129,122,121,122,119,115,124,152,125,121,121,121,121,154,124,127,108,119,119,121,117,115,118,95
165,126,123,124,125,124,129,144,115,120,121,121,119,123,119,104,115,120,121,123,129,132,124,115,119,120,121,121,118,120,122,118,117,120,121,123,117,129,118,116,119,122,120,125,131,145,123,136,127,122,121,122,122,103,121,118,114,121,121,120,106,76,121,125,113,119,119,122,122,107,118,104,118,122,120,122,127,126,123,124,135,123,122,122,120,123,124,132,116,121,121,121,120,121,119,110,103,119,119,121,122,117,117,106,127,122,122,122,123,122,124,116,134,123,121,120,120,120,122,117,108,120,121,121,122,112,120,122
131,121,121,123,122,124,117,117,93,121,121,122,125,105,119,109,126,120,120,122,121,122,121,112,119,121,121,122,122,126,122,120,132,121,121,121,118,122,120,123,112,121,120,121,126,119,123,119,118,121,121,122,119,117,120,115,121,121,120,116,102,117,122,125,116,123,124,124,128,105,123,116,111,121,121,121,116,117,120,118,132,120,119,121,121,121,122,121,117,121,123,123,128,111,121,112,105,120,120,122,127,118,118,127,120,122,121,122,119,118,118,112,126,121,121,121,121,125,119,101,120,123,122,123,121,108,125,138
110,124,123,125,128,134,121,115,132,121,120,120,118,127,120,123,102,121,121,121,111,108,121,124,125,122,122,122,123,142,119,120,129,121,121,119,122,112,118,113,118,123,121,124,135,125,119,124,111,120,120,122,119,119,120,116,121,122,122,122,118,119,122,121,124,122,121,121,120,121,120,123,121,120,120,121,120,119,121,117,113,121,122,124,116,115,119,117,109,121,120,118,121,123,121,108,132,123,121,122,119,119,121,120,131,121,121,122,120,120,125,127,135,121,121,122,119,112,119,126,98,119,119,121,120,133,117,97
136,125,123,123,120,121,128,153,118,120,120,121,119,125,121,105,114,124,123,123,123,124,125,125,114,121,121,120,118,126,120,114,127,122,120,119,118,133,118,118,115,122,121,121,116,103,120,121,134,122,122,122,120,122,120,119,120,121,120,121,121,119,122,122,116,121,122,123,123,140,120,120,115,121,120,121,118,135,124,123,135,123,123,123,128,121,120,120,118,122,121,124,121,118,121,133,128,122,121,122,120,121,121,118,124,120,121,121,120,120,119,113,117,121,121,122,120,122,120,114,131,121,121,121,121,119,119,120
102,120,119,120,119,117,120,116,120,123,122,123,122,125,124,119,112,119,119,121,120,124,119,104,116,121,121,121,122,116,119,113,116,122,122,122,121,105,121,138,120,120,120,120,117,131,118,112,121,121,121,122,116,115,124,138,125,122,122,123,127,128,125,118,107,121,121,121,121,121,119,132,126,122,122,122,126,130,123,114,118,121,121,122,120,117,118,116,129,121,121,122,123,123,124,136,114,120,120,121,120,118,121,113,116,120,120,121,117,104,121,109,136,120,119,122,126,108,118,116,115,123,123,123,124,128,125,134
103,119,119,121,119,116,117,101,120,121,120,121,123,124,121,107,104,122,121,121,113,117,120,125,118,120,120,119,112,126,119,115,120,122,121,122,120,120,122,107,100,121,122,123,119,113,122,125,127,121,120,120,120,123,123,114,115,121,122,124,126,135,122,115,131,122,122,122,125,119,122,124,115,120,120,124,122,120,122,119,115,121,121,122,125,134,125,120,119,121,120,120,118,114,120,118,113,122,122,123,128,125,122,120,124,121,121,122,120,120,120,129,130,121,121,122,121,133,123,115,112,121,121,121,117,120,123,134
112,122,121,122,126,142,120,108,107,119,121,122,122,140,121,100,148,125,122,123,119,122,124,137,110,120,121,122,126,138,121,123,114,121,120,121,120,123,120,109,123,121,121,124,124,127,123,132,123,121,121,121,119,114,122,120,115,121,121,124,123,133,122,116,132,122,122,122,120,119,119,115,109,120,120,120,106,131,121,120,118,122,121,125,140,136,124,118,125,123,122,124,134,141,122,124,120,121,122,124,122,116,120,121,103,120,120,121,117,118,118,105,122,122,122,122,121,122,125,146,118,122,121,121,120,122,121,112
102,120,120,123,131,131,119,95,133,124,122,122,119,130,126,147,112,120,121,121,120,119,118,103,139,124,123,123,122,124,126,127,107,117,120,121,119,119,116,88,141,124,122,123,121,101,125,146,114,121,119,121,116,100,120,113,136,123,122,121,118,120,121,119,127,121,121,122,119,121,119,121,118,121,120,121,119,118,122,120,119,120,120,122,122,113,121,115,127,123,123,123,116,96,121,124,113,120,119,119,117,125,119,121,110,122,123,124,123,123,123,119,137,120,121,120,120,122,119,118,127,122,122,125,122,121,122,133
107,120,120,120,120,123,119,108,143,124,122,126,135,132,123,132,111,119,120,121,114,110,117,109,135,124,122,122,131,122,126,161,108,120,119,120,118,124,118,103,118,121,121,121,120,116,122,110,111,122,121,125,124,130,122,117,119,122,121,121,121,119,122,122,130,122,121,121,121,121,120,112,112,121,121,122,120,124,122,110,119,121,120,120,122,119,120,123,132,120,120,121,114,121,117,116,117,122,121,121,114,111,121,138,118,122,121,120,120,120,120,119,111,119,119,120,115,127,118,114,124,122,121,122,123,118,120,120
117,121,121,122,120,111,117,114,131,122,122,123,122,123,123,127,120,121,121,122,121,121,122,141,113,121,120,120,120,120,119,104,121,122,122,125,120,118,124,137,121,121,121,122,122,129,118,97,130,124,122,123,122,115,127,134,107,120,119,121,121,130,120,103,129,120,121,122,119,107,120,114,118,119,119,120,122,113,121,117,115,121,120,119,103,103,123,130,118,123,122,124,120,109,120,119,118,121,121,121,127,123,122,130,130,121,120,121,119,121,123,117,125,121,121,122,119,115,120,120,108,120,121,121,127,115,121,119
110,120,121,122,122,146,120,113,132,122,121,121,123,132,126,124,150,122,123,123,121,122,123,128,107,118,119,121,121,126,120,108,136,121,120,121,120,95,122,131,115,119,119,121,120,134,121,116,110,122,122,123,117,119,119,113,132,123,122,122,116,114,122,122,122,120,120,120,127,115,121,115,106,121,121,123,121,122,121,111,135,122,121,123,122,126,122,127,119,121,121,119,122,119,122,127,114,122,120,123,113,117,118,115,115,121,120,120,113,102,116,117,129,121,121,123,119,119,121,122,104,121,121,122,120,119,119,110
117,122,121,122,121,121,120,121,117,123,122,124,121,120,124,122,127,121,120,119,119,127,119,116,117,119,120,124,120,115,120,127,124,121,121,122,121,123,122,128,116,123,122,122,115,118,123,104,110,119,119,121,127,147,118,110,112,122,121,123,133,134,122,125,119,121,121,121,119,113,114,105,119,121,121,121,121,126,125,144,116,122,120,121,120,120,121,115,118,120,120,122,125,123,120,113,119,122,121,121,119,123,123,123,115,123,122,124,124,134,121,123,121,122,121,118,119,117,121,123,119,121,121,122,120,120,121,120
120,120,120,122,121,121,122,124,117,119,120,122,118,125,120,113,116,122,120,124,127,109,123,117,109,119,120,121,117,130,121,119,149,123,122,123,124,126,124,140,118,121,121,122,120,117,117,108,122,122,121,121,117,116,121,126,122,121,122,122,117,114,121,116,109,122,121,122,122,119,121,126,119,121,120,120,119,117,122,116,120,120,119,123,130,132,121,116,128,122,121,122,116,120,122,124,112,122,121,123,125,108,121,121,115,120,119,120,119,119,120,118,117,121,120,122,123,123,122,114,124,121,121,121,118,115,123,135
121,123,122,123,127,123,122,135,124,120,120,121,120,129,121,113,130,122,121,122,122,122,122,123,107,120,121,122,127,121,119,111,148,124,122,123,122,123,126,143,121,124,123,122,119,110,126,134,109,119,118,118,114,115,117,96,138,123,121,123,125,107,124,146,117,119,120,121,114,130,119,103,120,121,120,121,127,120,121,113,103,121,121,122,116,123,121,115,137,123,123,122,137,133,123,123,118,121,120,125,120,100,119,123,124,120,119,116,130,121,122,125,118,120,121,120,114,119,121,116,131,123,122,124,128,128,122,125
122,121,121,122,118,119,119,118,104,120,120,120,121,124,122,119,116,122,121,123,126,139,122,115,135,121,120,121,120,123,123,131,128,124,122,123,121,122,122,122,134,122,121,122,116,128,123,133,113,119,119,120,123,135,121,118,118,123,122,122,120,118,125,133,114,120,120,121,122,127,118,108,142,122,122,122,121,100,126,143,124,120,121,123,119,117,119,113,109,120,120,120,118,118,119,112,132,123,122,122,122,121,120,137,120,122,121,122,121,120,121,118,120,122,121,121,120,122,121,121,111,121,121,121,120,124,121,121
122,124,121,123,121,135,120,121,114,121,121,121,118,116,120,117,120,121,120,121,121,117,119,116,135,122,121,123,125,120,123,127,131,123,121,123,122,123,124,138,110,121,121,122,124,122,119,104,114,122,122,121,119,119,120,114,122,122,121,121,117,123,120,125,119,122,121,120,125,107,121,113,110,119,120,128,131,132,120,105,156,124,122,121,122,135,128,158,101,120,121,122,121,128,121,108,124,121,119,121,120,116,118,122,121,121,121,121,127,137,122,116,118,120,121,123,118,116,120,109,135,121,121,120,109,119,123,139
106,122,122,124,141,121,121,121,122,121,120,121,118,120,121,122,117,121,121,121,119,121,121,118,119,121,121,121,121,120,121,119,113,122,120,122,122,122,122,113,112,120,120,122,120,127,121,116,117,122,122,123,119,117,119,134,104,119,121,122,120,119,121,129,133,123,122,123,122,131,126,134,118,122,120,122,121,112,121,116,119,121,121,121,116,124,119,113,124,121,121,123,128,145,122,124,109,121,121,123,120,148,124,109,140,122,122,121,120,118,120,125,114,121,121,122,119,119,121,124,118,121,120,120,119,121,118,114
110,121,121,121,130,121,119,114,139,122,121,120,114,121,124,130,121,121,120,122,120,109,121,118,117,122,120,120,121,119,121,116,113,121,121,121,117,120,119,120,113,121,121,121,121,129,123,117,122,122,122,122,119,122,121,119,138,121,122,123,128,146,121,125,96,120,120,120,118,111,122,126,133,122,122,124,128,125,119,109,123,121,120,122,119,117,120,119,124,119,120,121,120,122,121,121,111,122,121,122,120,122,121,124,123,122,122,122,126,126,123,122,115,121,120,122,121,121,120,106,116,122,122,123,116,122,119,114
134,121,120,121,124,125,122,131,115,122,121,120,119,120,120,111,115,121,121,120,120,108,119,113,131,122,122,124,115,121,122,131,104,121,120,121,120,120,120,121,106,121,121,120,118,119,120,108,149,121,120,122,121,121,121,122,115,121,120,120,121,120,121,124,117,120,120,121,121,132,123,114,114,122,121,122,120,113,121,133,126,123,121,121,121,118,121,123,117,121,121,121,118,116,121,119,119,121,121,121,120,114,120,120,134,122,123,124,125,138,119,112,122,123,122,123,118,119,126,133,114,122,122,122,117,118,121,118
118,121,121,121,121,122,121,114,124,122,121,122,121,118,120,116,119,121,122,123,125,111,122,118,118,120,121,123,121,111,118,110,118,123,120,121,122,114,122,142,138,124,122,123,124,126,126,140,115,121,121,122,121,120,120,116,121,121,122,122,119,106,121,116,132,120,120,121,119,120,121,114,107,122,122,122,124,124,122,121,123,122,121,122,122,121,121,119,118,120,120,121,117,117,118,115,125,120,121,120,115,114,122,129,123,120,120,120,125,127,121,118,117,121,121,123,117,115,120,119,110,120,121,124,128,122,120,119
127,121,123,122,120,120,121,121,125,120,120,121,117,115,120,123,121,122,121,121,120,123,121,118,121,119,119,121,121,118,121,123,134,121,121,122,126,126,125,139,116,120,121,122,120,120,120,112,127,122,121,121,122,130,122,125,130,120,120,122,121,123,121,113,121,122,121,122,120,119,123,130,129,121,122,122,122,129,122,142,116,121,120,121,121,118,120,121,122,122,121,122,129,137,124,116,115,120,120,120,118,122,120,120,125,121,121,121,119,122,121,121,116,121,120,122,122,121,121,119,118,122,121,120,114,119,119,118
120,122,122,126,132,121,120,121,118,121,121,120,109,125,122,122,116,121,121,122,131,118,121,116,104,122,122,126,125,133,122,113,138,123,122,123,120,119,123,142,103,119,120,121,120,120,119,104,145,123,121,122,123,113,123,122,118,122,122,123,120,117,121,123,118,121,121,122,120,120,120,109,112,122,121,121,123,124,122,122,128,121,120,121,120,113,120,118,125,122,122,120,122,141,125,135,112,120,120,123,118,114,118,110,122,122,120,121,119,122,122,125,114,121,121,121,122,122,121,133,129,122,121,121,119,116,120,116
114,120,121,123,122,126,120,115,129,123,122,122,118,116,120,122,117,121,121,121,121,122,121,121,108,121,120,121,121,125,122,117,122,122,121,121,121,124,119,106,116,123,122,123,125,129,127,146,108,119,120,121,120,137,121,109,133,122,121,121,120,122,120,123,107,121,121,123,121,116,121,110,123,122,121,121,129,116,121,112,122,121,120,121,116,108,121,117,128,123,122,122,121,123,126,142,118,121,121,121,120,118,120,121,120,120,120,121,118,132,122,111,112,122,120,123,129,126,123,119,145,123,122,120,118,122,121,122
117,121,121,120,119,122,120,119,119,120,120,121,117,106,119,123,114,122,122,121,115,135,123,121,124,121,121,123,120,114,120,120,108,121,121,122,120,123,120,112,125,122,121,121,120,119,120,123,127,122,121,122,121,122,122,123,121,121,121,120,117,114,119,117,120,121,120,120,119,124,121,122,101,121,121,121,121,126,121,113,125,122,122,123,119,133,120,119,117,120,122,121,119,133,123,120,116,120,119,122,118,117,117,111,126,122,122,122,119,122,122,123,109,122,121,122,120,121,122,115,116,120,121,124,124,124,121,126
120,122,121,120,119,122,122,118,126,121,121,123,120,117,118,117,116,121,121,122,122,121,120,121,111,121,121,121,123,129,120,123,146,124,123,125,123,128,126,139,113,119,118,116,99,117,120,112,136,122,121,129,167,128,122,129,103,120,121,121,115,118,120,112,130,121,121,121,119,122,122,118,124,122,122,121,121,130,122,128,105,120,120,120,117,117,120,107,129,121,121,120,113,117,120,129,103,120,120,121,120,120,118,105,136,124,122,121,121,124,127,141,115,122,122,123,119,113,119,113,125,121,121,122,121,127,121,118
120,122,121,122,124,143,121,119,119,121,121,122,121,118,120,118,122,120,121,122,122,121,122,124,115,121,121,121,121,121,121,119,115,122,121,120,118,119,120,118,128,120,120,125,119,112,120,114,129,123,122,121,120,122,124,136,123,123,122,122,120,121,120,111,119,121,121,123,123,122,123,117,116,121,121,122,122,122,121,112,127,121,122,123,122,143,122,121,118,121,120,120,110,114,122,123,129,122,121,124,132,120,121,120,109,121,121,122,121,122,122,113,138,122,121,123,117,118,120,126,114,121,121,121,121,119,120,114
117,120,120,121,119,123,120,119,113,121,121,126,129,125,120,113,121,123,123,123,126,123,122,123,119,121,122,122,119,135,123,122,132,122,122,121,124,121,121,127,114,121,120,121,118,120,121,116,111,121,120,119,118,123,122,119,119,122,123,123,119,128,120,113,126,121,121,121,118,111,121,122,110,121,120,121,119,139,123,134,105,121,121,123,124,120,121,112,134,123,121,121,117,119,122,120,122,121,121,121,121,125,120,117,117,121,120,122,121,121,122,118,119,121,121,121,119,118,120,119,124,122,121,122,122,122,120,113
126,123,122,120,119,122,123,135,107,118,119,121,122,121,121,123,120,123,121,121,115,116,121,120,117,121,120,121,123,117,120,119,117,120,120,121,117,121,121,118,119,123,123,123,125,125,122,124,125,121,121,121,121,136,123,116,113,120,121,122,123,126,120,116,121,122,121,122,123,125,123,120,112,122,122,121,120,120,120,114,125,123,122,124,122,109,124,123,123,120,121,123,127,111,120,118,112,121,120,122,115,119,121,128,134,123,122,121,120,120,122,123,107,122,121,121,121,121,121,117,117,121,120,121,121,119,119,114
116,121,120,120,112,117,120,117,121,121,119,120,126,126,122,120,117,120,121,122,117,122,121,123,130,123,121,122,124,114,122,123,122,122,122,123,121,132,124,115,123,122,122,124,123,126,121,117,121,121,120,121,119,121,120,125,114,122,121,121,119,115,121,124,140,121,120,121,122,122,122,130,115,123,121,122,121,122,122,121,119,120,120,121,123,111,119,114,129,123,122,123,120,128,123,138,115,121,121,122,120,112,120,116,119,121,122,124,128,120,120,111,124,121,121,122,124,125,120,124,109,122,122,126,130,114,123,131
148,121,120,123,123,138,124,127,115,122,121,121,120,122,121,122,119,121,121,121,117,121,120,118,108,120,121,122,122,124,120,114,124,121,121,122,121,127,121,120,118,120,119,121,121,112,120,120,137,122,121,124,123,118,122,127,118,121,121,122,120,120,121,114,115,123,121,122,120,122,120,121,129,122,121,123,125,117,122,129,112,120,121,121,122,122,120,117,129,122,120,121,121,123,123,134,122,121,121,122,121,121,120,112,115,121,120,122,122,122,120,113,139,122,121,120,117,131,121,122,119,120,121,124,122,111,120,125
104,120,120,119,119,123,121,120,124,123,123,122,120,129,120,117,118,120,120,119,118,119,122,121,113,122,121,121,118,126,119,116,121,120,121,124,138,128,123,120,116,121,121,122,119,110,120,115,131,122,121,122,120,121,122,135,118,120,121,121,127,119,120,112,122,121,119,121,122,127,120,118,133,121,121,121,117,124,121,123,114,122,122,123,122,123,122,124,116,121,121,121,126,131,120,117,125,120,120,122,123,115,120,117,114,120,120,121,121,121,120,108,130,124,122,126,122,124,123,113,122,120,121,122,121,121,121,130
131,123,121,122,121,123,123,126,100,120,121,121,119,138,120,112,115,121,120,125,132,118,121,115,130,122,120,121,118,118,122,128,122,122,121,122,127,126,124,124,130,122,121,121,120,123,121,118,133,121,122,122,119,116,122,123,125,123,121,121,117,118,121,118,106,121,120,121,120,118,120,118,126,122,122,122,120,122,121,121,123,122,121,122,121,121,124,121,109,120,120,122,123,121,120,109,123,121,121,122,121,121,121,121,132,123,121,121,121,121,121,116,115,121,120,121,123,132,121,137,119,121,120,121,121,128,121,111
