119,124,121,121,120,121,121,122,120,121,121,123,122,120,121,120,121,122,120,121,122,121,121,120,120,122,121,122,121,120,121,120,120,120,122,123,122,121,122,120,122,122,121,122,121,121,121,120,120,120,120,124,122,122,121,120,120,120,120,116,119,121,121,120,122,120,120,122,122,120,121,121,121,123,120,122,121,122,122,121,120,122,122,123,122,121,121,120,121,122,121,121,121,121,121,121,121,122,121,121,121,121,120,120,119,119,120,122,121,121,122,120,119,121,120,122,121,121,122,121,120,122,123,123,123,121,121,120
120,121,120,120,119,121,121,120,120,121,122,122,121,120,121,121,120,122,120,120,121,121,122,121,121,120,121,124,123,121,121,119,122,122,119,121,120,121,121,121,121,120,120,119,118,121,122,122,120,122,121,125,124,122,122,119,122,122,122,125,123,121,121,120,120,122,121,121,121,121,121,120,120,122,120,123,119,121,121,119,121,121,121,123,123,121,121,120,120,123,120,122,122,121,121,119,120,122,121,121,120,121,121,121,121,121,121,121,119,121,121,121,120,122,121,121,121,120,121,119,120,123,120,121,121,121,122,120
121,121,124,123,121,120,120,119,121,120,119,122,122,121,121,120,121,121,122,123,121,121,121,120,120,122,122,124,119,120,121,121,120,121,120,118,120,121,122,120,121,121,121,127,124,121,122,121,121,120,120,119,118,121,122,121,119,121,121,125,124,122,121,119,121,120,121,122,121,121,121,121,121,122,121,122,120,121,121,121,121,122,120,121,121,120,121,120,120,123,121,123,123,121,122,120,121,122,122,125,123,122,122,121,121,121,121,117,118,120,122,120,120,119,120,122,122,121,121,120,122,121,121,120,121,121,122,121
121,124,122,122,121,121,121,121,120,123,122,123,121,121,122,120,120,120,120,121,121,121,121,120,120,122,120,121,121,121,121,121,121,121,121,122,121,122,121,121,120,120,120,121,120,121,121,121,120,122,121,121,122,121,121,120,121,121,121,123,122,121,121,121,121,122,120,118,119,121,121,121,121,120,121,122,121,121,122,120,120,122,123,123,122,122,122,122,120,120,121,121,123,121,122,119,121,122,121,119,117,121,121,121,121,121,121,121,122,120,121,120,120,120,120,121,119,120,121,120,120,122,121,123,123,121,121,119
122,122,122,124,122,121,121,120,121,122,121,122,121,120,122,120,120,122,121,122,121,120,120,119,120,121,120,122,121,122,122,121,122,121,121,122,122,121,121,120,119,120,121,122,122,122,121,119,119,121,121,121,121,121,121,120,120,121,121,122,120,121,121,119,121,122,120,120,121,121,122,121,120,121,121,123,123,121,121,119,122,122,120,120,118,120,121,121,121,123,121,122,121,121,120,119,124,121,119,120,121,121,122,121,120,122,121,123,123,122,121,120,121,121,122,121,121,121,121,121,120,120,119,120,121,121,122,120
120,124,123,123,122,121,122,121,120,122,121,122,121,121,121,121,120,122,121,122,122,121,120,120,121,121,119,120,120,121,121,120,120,121,120,121,122,121,121,120,120,121,122,122,121,121,122,121,120,121,121,122,122,121,122,121,121,119,121,119,119,121,122,120,119,119,120,122,121,121,121,120,121,122,122,124,122,121,122,121,122,121,120,121,121,121,121,122,120,122,121,123,123,121,120,119,119,121,121,119,118,120,121,120,120,121,120,123,122,122,121,120,120,122,121,123,122,121,121,121,120,122,120,125,124,121,121,120
119,122,121,116,116,120,122,121,122,121,120,123,122,121,122,120,119,121,121,121,122,121,121,120,122,122,120,120,120,121,121,121,122,120,119,122,122,121,121,122,121,120,121,121,121,121,122,121,119,121,120,122,121,121,121,120,121,121,121,123,122,121,122,120,121,121,120,118,119,121,121,121,121,122,120,123,120,120,121,121,119,120,121,122,123,121,121,119,119,123,122,125,121,122,121,120,121,118,120,119,121,121,121,120,120,123,123,123,122,120,121,120,120,122,121,124,122,121,121,121,121,121,120,119,118,120,121,120
121,120,121,121,121,121,121,120,120,122,121,125,122,121,121,119,120,121,120,118,117,120,120,120,120,121,120,123,123,121,122,121,121,121,123,124,123,122,122,120,121,124,123,124,122,121,121,121,121,121,119,120,121,121,121,120,120,120,119,120,119,121,121,120,120,122,120,122,121,121,122,120,121,121,122,122,121,121,121,121,120,122,120,123,122,121,121,120,121,120,120,121,121,121,121,121,122,121,119,120,121,121,121,120,121,124,122,122,121,122,122,121,120,120,122,123,121,120,120,120,121,121,121,122,121,121,121,121
120,122,120,122,121,121,121,120,121,122,122,122,121,121,122,121,120,120,121,121,121,121,122,121,119,120,121,123,120,121,121,119,119,122,120,119,122,120,121,120,122,123,122,122,121,121,122,120,120,121,119,121,121,122,122,121,121,121,122,123,122,121,121,120,120,121,122,120,121,121,121,119,120,122,119,123,121,121,121,119,120,120,121,121,121,121,121,120,121,121,121,121,121,121,121,119,121,122,121,123,121,121,121,121,122,122,120,122,122,121,121,121,121,120,122,122,122,121,121,119,120,119,120,121,121,121,122,120
121,120,119,122,121,121,121,121,121,122,123,122,121,121,122,121,121,123,120,122,121,121,121,120,120,122,119,120,121,122,122,120,120,122,122,122,122,121,120,120,120,122,122,123,122,121,122,120,120,120,120,126,124,122,122,121,119,121,119,116,116,121,121,119,121,119,119,122,119,120,121,121,122,122,121,122,123,121,121,120,122,121,118,121,122,122,122,120,121,121,122,124,123,121,121,119,121,122,123,123,120,121,121,121,120,122,122,124,121,120,121,121,120,121,120,120,120,121,121,120,122,121,120,122,121,121,121,120
121,121,122,120,121,121,121,120,120,122,121,121,121,121,121,120,120,122,122,122,120,121,121,121,120,121,120,122,121,121,121,120,122,121,122,123,121,121,121,121,121,123,122,122,121,122,122,122,121,122,121,121,120,120,121,120,119,120,121,124,121,120,121,120,121,122,122,123,122,121,121,120,120,123,122,121,121,121,121,122,122,121,117,121,120,121,121,120,119,120,121,117,119,119,120,120,121,120,121,125,122,121,120,120,121,122,121,121,122,121,121,120,122,121,122,125,122,122,122,121,119,120,119,121,122,120,121,121
121,123,123,122,120,121,121,121,121,123,121,122,121,121,121,119,120,120,121,124,122,121,121,120,120,121,120,120,121,121,122,121,121,122,119,119,120,121,121,120,122,123,121,122,121,121,121,121,120,121,121,121,121,121,122,120,121,119,118,121,122,121,121,121,121,121,122,123,122,121,121,120,121,123,121,117,116,120,121,122,119,121,123,123,123,121,121,120,119,120,120,124,123,122,122,120,120,120,122,121,121,121,122,120,119,122,123,124,122,122,121,120,120,120,121,122,122,122,121,119,120,122,118,120,121,122,122,120
121,121,121,120,120,121,121,121,121,123,122,122,122,121,121,121,119,121,123,123,122,121,121,119,120,120,121,121,122,121,121,120,121,120,120,122,122,121,121,120,120,122,119,118,117,120,121,120,119,121,121,125,124,122,121,119,120,121,122,125,123,121,121,120,121,123,121,115,116,121,122,121,122,121,121,124,122,121,121,120,119,121,118,120,122,121,121,121,120,120,122,123,122,121,122,120,122,123,121,124,121,121,122,121,120,120,121,123,121,121,122,121,119,119,119,119,120,121,122,119,120,121,124,123,123,121,120,120
121,123,119,120,119,120,121,121,120,121,119,120,121,121,121,120,120,122,124,125,122,121,121,120,121,121,123,123,123,121,121,118,120,121,120,123,121,121,121,120,121,123,119,119,119,121,121,121,122,123,125,125,121,121,121,120,120,121,121,123,122,121,121,119,120,118,119,122,122,121,122,121,122,122,123,123,121,121,121,121,120,121,120,117,114,120,121,121,120,121,119,122,122,121,120,120,120,122,121,123,123,121,121,120,121,122,122,124,122,121,122,120,120,122,123,125,122,121,122,120,120,121,121,121,122,121,121,120
121,120,119,117,119,120,121,121,120,122,122,122,122,121,120,120,119,120,121,123,122,122,121,119,120,121,121,125,123,122,121,120,121,124,120,120,121,121,121,122,122,121,123,118,116,120,120,120,119,121,115,119,123,121,122,120,120,122,124,127,125,121,122,121,121,122,122,120,118,121,122,121,120,121,119,121,122,121,121,121,120,121,122,121,120,121,121,120,120,121,119,122,122,121,121,120,119,121,122,124,122,120,121,119,121,121,119,122,121,120,120,121,120,120,122,123,122,121,121,119,121,121,119,121,120,120,121,121
122,121,123,123,122,121,120,120,120,121,122,123,121,121,121,120,119,119,120,122,122,121,120,120,121,122,121,121,120,121,121,120,120,122,121,123,122,122,121,121,120,122,123,123,121,121,121,119,120,122,120,124,121,121,120,120,121,122,120,117,117,120,121,122,121,121,121,122,122,121,121,121,121,122,123,122,122,121,121,121,120,122,122,122,122,121,121,120,120,122,121,121,121,121,121,120,120,122,122,125,123,122,121,120,122,121,120,116,117,121,121,121,120,121,121,122,122,121,121,120,119,121,123,123,122,121,121,120
121,122,118,121,121,121,121,121,122,123,123,121,121,122,122,121,121,121,119,121,122,121,121,120,119,122,122,123,121,121,122,120,122,121,122,122,122,121,121,120,121,122,121,122,121,120,121,121,120,120,121,121,120,121,122,120,122,122,119,116,119,119,120,121,120,122,121,123,119,121,122,120,121,120,122,125,123,122,122,121,119,122,120,122,122,122,122,121,121,120,122,122,122,122,121,119,121,121,121,120,120,121,121,120,121,122,121,124,122,120,121,120,121,122,122,119,119,121,121,119,120,121,121,122,123,121,121,120
121,121,121,122,122,120,121,121,121,121,122,122,121,121,121,120,119,122,121,122,122,121,121,120,120,121,121,122,121,121,122,120,121,121,122,124,123,121,121,120,121,122,121,120,119,120,121,121,120,121,121,121,118,119,121,120,120,121,121,122,123,121,120,119,122,120,121,125,123,123,122,119,120,121,121,120,121,121,120,121,120,122,121,121,119,120,121,120,121,121,120,124,122,121,121,121,121,122,121,121,121,121,122,120,123,121,120,119,120,121,122,121,119,121,121,122,121,121,122,121,120,121,122,123,122,121,120,120
121,121,121,123,121,121,121,121,120,122,121,122,121,122,122,120,121,120,122,122,121,120,121,121,120,121,121,120,118,120,122,119,122,120,119,119,120,120,120,119,121,123,122,124,123,121,121,122,120,121,119,121,120,121,122,121,119,120,122,117,119,121,121,120,122,122,121,122,122,121,122,120,120,121,119,123,123,121,121,121,120,121,121,123,120,120,121,121,121,121,121,121,121,120,121,120,121,122,121,123,121,121,121,120,120,121,121,120,120,121,121,121,119,121,121,124,121,121,121,121,120,119,120,119,119,121,122,120
121,122,122,122,122,121,121,120,120,121,122,124,122,121,122,119,120,120,119,119,120,122,122,120,121,120,122,123,122,121,122,119,121,121,121,124,121,121,121,120,121,123,122,119,119,121,121,121,120,121,121,124,121,120,121,120,120,122,121,115,118,121,122,121,122,123,120,126,123,121,121,120,119,121,123,122,122,122,122,120,121,121,119,120,120,120,120,120,122,122,124,125,122,121,121,121,119,121,121,119,121,121,121,121,121,122,122,124,122,121,120,120,120,121,121,122,122,122,122,120,120,120,120,120,119,121,122,120
122,121,120,123,122,121,121,120,120,122,121,123,121,121,121,121,121,121,121,120,121,121,121,119,120,122,119,121,119,120,121,121,120,123,123,121,123,121,122,121,121,120,119,122,121,121,121,121,121,122,121,123,122,121,121,121,120,122,120,121,121,122,122,120,122,121,120,123,121,121,121,121,122,122,120,122,121,121,122,122,119,120,120,122,122,121,121,119,120,120,120,121,121,121,122,121,121,123,121,122,120,121,121,121,122,123,121,122,122,121,122,121,120,118,122,123,121,121,122,121,119,121,120,119,121,121,121,119
120,121,121,120,119,120,120,119,120,121,121,123,123,120,120,119,122,122,123,123,122,122,122,121,119,122,120,123,122,121,121,119,121,122,123,125,123,121,122,121,122,121,118,114,115,121,122,120,118,122,122,126,125,122,122,120,121,120,120,119,120,121,121,119,121,121,123,120,120,120,121,121,121,120,120,124,121,121,121,122,120,122,121,121,121,121,121,120,120,120,121,123,121,121,121,120,121,122,121,122,121,120,120,120,120,121,122,121,121,121,121,121,120,120,120,120,121,122,122,120,120,119,120,121,121,121,121,120
122,121,121,121,121,121,121,121,120,123,121,123,121,121,122,122,118,121,120,121,122,121,122,120,119,122,121,123,122,122,122,120,120,121,121,121,119,121,121,120,122,123,119,118,120,120,121,121,120,120,122,122,122,122,121,119,121,120,119,120,122,122,122,120,121,122,122,123,121,122,122,121,121,122,120,118,119,120,121,121,120,123,122,122,121,121,121,120,120,122,121,122,121,120,121,120,120,122,122,123,122,122,122,121,121,123,123,123,121,121,121,120,121,121,121,122,120,120,121,119,119,120,121,123,121,121,121,119
121,121,120,122,121,121,121,121,122,121,121,121,121,121,121,121,120,121,120,121,121,121,122,120,119,121,122,122,121,120,120,119,119,120,120,122,121,121,122,121,121,122,122,121,122,121,122,121,121,120,119,120,118,120,122,121,120,122,122,125,125,122,122,120,120,122,119,124,122,121,122,120,121,121,120,117,117,121,121,120,120,118,121,124,123,121,122,122,120,122,121,122,122,120,121,120,121,122,120,120,120,121,121,121,122,121,121,123,122,121,122,121,118,122,121,123,123,121,122,121,120,121,120,121,122,122,122,120
121,121,120,122,120,120,121,120,119,121,121,121,120,121,121,120,120,121,119,121,122,121,122,120,122,120,121,121,120,121,121,120,120,120,123,124,122,121,121,119,120,122,120,121,121,122,121,120,120,120,120,120,118,121,122,121,121,121,118,121,122,121,121,121,121,122,125,126,123,122,122,119,121,120,119,114,118,120,121,122,120,121,121,124,123,120,121,121,119,122,121,122,122,121,122,120,121,122,122,125,123,121,121,120,121,122,123,125,122,121,120,121,120,121,119,116,117,121,121,120,120,121,120,123,122,120,120,120
121,121,121,122,122,121,121,121,120,122,123,123,121,122,121,120,121,121,121,123,121,121,121,120,122,123,122,119,118,120,122,120,121,121,121,123,123,122,122,120,121,120,121,123,122,121,121,121,120,121,120,120,118,120,121,120,120,121,120,122,123,121,121,120,122,122,122,121,121,122,122,120,121,121,121,124,123,121,121,120,121,121,123,119,120,121,121,121,120,121,121,122,121,120,121,120,121,122,119,120,120,120,121,120,119,121,119,121,123,122,121,120,120,120,123,123,122,122,121,120,120,120,122,125,122,121,122,120
121,121,120,119,120,121,121,121,121,121,120,119,118,120,121,121,122,122,121,125,124,121,122,121,119,119,122,121,121,122,121,120,121,121,119,122,121,121,121,120,121,119,120,121,120,121,121,120,120,124,122,122,121,122,122,121,120,123,122,122,121,121,121,120,120,121,120,120,120,121,121,119,120,123,121,122,121,121,122,121,121,122,122,123,122,121,121,121,121,122,121,120,119,120,121,119,120,121,122,123,122,121,121,120,119,123,121,123,122,121,120,120,121,122,122,121,120,121,121,121,121,121,122,123,122,121,121,119
120,121,118,120,121,121,121,120,122,122,123,122,121,121,121,121,120,120,121,123,123,121,120,120,118,122,121,121,122,121,122,120,119,120,119,119,120,121,122,121,121,122,120,123,121,121,122,121,121,121,120,119,119,121,121,120,121,122,124,124,122,120,121,119,120,120,119,121,121,121,121,120,121,123,122,124,122,121,121,122,120,123,121,118,119,121,122,121,121,123,122,121,121,121,121,120,120,121,121,124,123,122,121,121,121,121,121,120,120,121,121,121,121,121,120,122,121,121,122,120,119,121,123,124,123,122,122,119
121,123,117,119,119,121,121,120,120,121,120,120,121,121,121,120,121,120,122,121,120,121,121,120,119,120,121,123,122,121,121,119,120,123,122,122,121,121,121,120,121,122,121,124,120,121,121,120,120,122,121,120,121,120,121,120,121,121,121,123,122,121,121,121,120,120,122,123,123,121,122,120,121,124,123,120,117,120,121,121,120,122,118,122,124,121,120,119,120,121,117,119,121,121,122,120,121,120,122,124,122,122,122,121,121,122,123,125,122,120,121,121,123,121,120,121,121,121,122,121,119,120,121,120,120,121,121,120
121,122,121,123,122,121,121,120,119,121,121,123,120,121,121,119,122,122,121,121,122,121,121,119,121,120,119,120,118,120,121,120,119,122,124,123,123,122,121,119,120,121,120,122,121,122,122,121,120,122,120,122,121,121,121,120,120,121,123,122,121,120,121,120,120,120,121,121,122,121,121,119,122,121,121,125,122,121,121,122,120,122,119,118,119,120,121,120,119,121,119,122,121,121,121,121,121,120,119,119,119,121,121,120,122,122,122,125,123,121,121,121,121,120,121,120,120,121,122,121,121,121,120,123,123,121,121,121
120,122,122,122,119,120,121,120,122,122,121,120,122,120,120,121,119,121,123,124,123,121,121,119,120,122,121,117,119,121,121,121,120,121,121,123,122,120,120,120,122,122,120,123,122,121,121,122,121,122,122,122,121,120,121,120,119,120,121,123,122,121,122,120,121,122,119,123,120,121,122,120,121,122,121,121,121,121,121,121,120,120,119,117,118,121,122,121,119,121,119,122,123,121,121,118,120,120,122,122,122,121,121,120,120,121,120,124,121,121,121,121,121,121,121,122,121,121,121,121,120,122,122,121,121,121,121,120
121,122,121,122,121,122,122,120,122,122,120,125,123,122,122,121,119,121,119,118,117,121,121,120,119,121,121,123,123,121,122,120,121,121,121,122,123,121,121,120,121,122,121,122,122,121,122,121,121,120,121,121,121,121,122,120,120,121,122,122,121,121,121,119,121,121,121,123,122,121,121,119,120,122,121,119,120,121,121,121,120,122,118,122,122,121,121,121,121,123,121,120,121,121,122,121,119,119,122,123,122,122,122,121,122,121,122,122,121,121,122,120,120,123,120,122,121,121,122,120,120,122,122,122,121,121,121,119
121,119,119,122,122,121,122,120,120,121,121,123,122,121,121,121,120,121,119,116,118,121,122,119,122,122,121,124,122,121,121,120,120,121,121,122,122,121,121,121,120,121,122,124,124,121,120,121,121,123,121,117,116,120,121,120,121,122,120,123,124,122,121,120,120,121,122,122,123,122,121,120,121,121,122,123,122,122,122,120,120,122,121,121,121,121,121,121,121,120,120,122,122,121,121,120,120,121,121,123,122,121,120,120,120,122,120,122,120,121,121,122,120,122,122,122,121,120,121,120,120,121,119,122,121,121,121,120
121,121,120,120,121,121,122,120,121,122,121,122,121,120,121,121,120,122,121,120,120,121,121,121,120,122,121,122,121,120,120,120,121,121,121,122,122,121,122,120,122,122,121,124,123,121,121,121,119,120,121,118,117,121,122,120,120,119,118,117,119,120,120,119,121,121,121,125,124,122,121,120,122,121,122,123,122,121,121,120,120,122,121,121,118,120,120,119,121,120,120,123,122,121,122,121,122,122,122,123,121,121,121,121,122,123,119,119,120,122,122,121,120,121,122,124,122,121,121,121,119,121,117,121,121,122,121,119
121,122,122,119,119,120,121,119,122,122,121,123,121,121,122,122,121,123,122,123,121,121,122,120,121,121,119,119,120,120,122,120,120,122,123,122,121,120,121,121,121,122,122,123,121,121,122,121,119,121,120,120,120,121,121,121,120,119,119,123,124,121,121,119,120,122,121,121,119,121,121,120,122,121,121,120,121,121,121,121,118,122,122,123,121,121,122,120,119,122,120,121,122,122,121,120,120,121,121,123,122,122,121,119,120,121,122,123,121,121,121,121,122,121,119,121,122,122,122,121,121,121,118,119,120,120,121,120
120,121,122,122,119,120,121,120,121,122,121,124,122,121,120,121,121,123,121,121,121,121,121,121,121,123,121,123,122,121,121,120,121,123,121,122,121,120,122,120,120,122,121,123,121,121,121,121,120,119,121,123,121,121,122,122,121,121,119,115,117,120,121,119,120,121,118,122,123,121,122,120,122,122,122,122,121,122,121,121,121,121,121,121,121,121,122,119,121,122,120,122,122,121,121,121,121,120,123,120,120,121,121,120,120,121,122,122,121,121,121,120,118,120,118,121,121,121,122,120,121,121,123,119,120,121,120,119
121,121,120,121,121,121,122,122,122,123,120,123,120,121,120,120,120,121,122,123,122,121,121,121,120,122,121,123,121,120,121,121,122,121,121,120,121,121,122,121,121,122,121,123,121,121,120,121,119,121,122,122,122,121,121,119,121,121,121,120,121,121,121,121,121,121,121,124,123,121,121,120,121,123,123,119,117,120,120,121,120,121,121,122,122,120,121,119,120,122,121,122,121,120,121,119,120,121,122,124,122,122,122,120,121,123,122,123,122,122,121,121,121,121,121,122,122,121,121,120,120,121,122,123,122,120,121,120
120,120,117,119,118,121,122,121,120,121,122,123,123,121,121,122,120,120,122,122,121,121,121,120,120,121,119,119,121,121,121,120,121,122,120,122,121,121,122,120,119,122,121,123,121,121,121,119,119,121,123,122,121,121,122,121,122,120,120,123,122,121,121,120,121,121,120,120,120,121,121,121,120,121,122,122,120,120,120,120,121,122,122,122,121,121,121,121,120,121,121,123,123,122,122,120,120,120,117,118,119,121,122,120,120,122,122,123,119,120,121,120,120,123,122,119,120,121,121,120,120,122,122,127,124,122,122,119
122,121,120,118,117,120,121,120,120,121,119,121,122,121,121,121,121,121,123,122,121,122,122,121,120,121,121,122,122,121,122,120,120,121,122,123,122,121,122,120,120,123,121,121,119,121,121,119,122,122,121,121,121,121,121,120,120,120,121,123,122,120,121,120,119,120,119,117,118,121,121,121,121,122,120,124,122,121,122,121,120,121,122,122,123,122,121,120,120,121,117,121,122,121,122,120,122,122,123,120,119,121,122,120,121,120,119,121,122,121,121,121,120,121,121,123,122,122,122,121,120,121,122,122,121,121,122,120
122,122,122,121,120,121,121,120,121,122,120,123,120,121,122,121,121,121,121,122,122,121,120,120,120,121,122,122,121,121,121,120,119,120,120,122,120,120,121,120,122,122,121,122,121,121,122,121,121,121,120,121,120,121,121,121,120,121,120,121,123,121,121,119,121,122,121,122,120,121,121,120,119,120,119,125,122,121,122,122,121,123,127,123,122,122,122,121,121,120,117,118,119,121,121,121,120,123,122,123,122,121,120,120,122,120,119,122,121,121,121,121,121,122,121,119,120,121,122,120,120,122,120,122,122,121,122,120
120,122,123,122,122,121,121,119,120,121,120,122,121,121,121,120,119,121,121,123,122,121,121,121,121,122,120,120,120,121,122,121,120,122,120,122,121,120,121,120,120,121,121,120,120,121,120,120,120,120,119,122,122,122,122,120,120,122,124,122,122,121,121,119,120,121,119,117,118,121,121,120,121,122,120,124,122,121,121,120,121,122,121,125,122,120,121,120,120,120,121,120,121,121,121,119,122,122,121,121,121,121,121,120,121,121,119,123,122,121,120,120,120,121,121,121,121,121,122,121,120,122,121,123,122,120,120,119
121,122,122,122,121,121,122,121,120,122,122,123,122,122,121,120,121,120,121,122,122,121,121,120,120,120,118,118,115,121,121,121,121,122,120,123,124,121,122,121,120,121,122,123,122,121,122,121,121,122,122,122,121,121,121,121,120,120,119,122,122,122,122,120,119,119,121,119,119,121,122,121,121,123,121,121,120,121,121,121,121,121,122,124,123,121,122,119,120,122,121,123,121,120,121,120,121,121,119,116,119,120,122,120,120,122,122,124,123,121,120,120,122,121,122,122,121,121,121,120,119,121,119,124,124,121,122,120
121,120,120,116,115,120,121,120,120,122,120,122,124,121,121,119,120,122,122,124,122,121,122,122,121,120,118,119,121,121,121,122,122,122,124,122,121,121,121,120,121,121,119,124,122,120,121,121,120,120,120,118,117,120,121,121,120,121,120,120,121,121,122,120,119,120,120,123,122,122,122,120,122,122,119,120,121,121,122,120,120,120,120,122,121,121,122,120,122,122,121,121,120,121,122,120,119,120,121,121,122,121,122,120,121,122,121,120,121,121,121,121,121,121,121,123,123,122,121,120,121,121,121,120,120,121,122,121
120,121,119,121,120,121,121,121,121,121,121,124,124,121,120,120,121,122,120,119,120,121,122,121,120,121,123,123,122,121,121,120,122,121,120,120,121,121,122,121,122,121,119,122,121,121,121,120,120,120,118,120,122,122,122,120,121,122,121,120,121,121,122,120,122,120,120,122,119,120,120,120,120,123,121,120,120,121,121,121,119,121,121,123,123,121,122,120,120,121,121,123,123,122,122,120,119,121,122,120,120,121,122,121,122,120,122,122,119,120,121,119,118,122,121,122,123,121,121,120,121,120,121,123,122,122,121,120
122,122,121,122,121,121,121,120,121,123,123,121,120,121,122,122,119,119,119,122,122,121,122,120,119,122,122,122,121,120,120,120,120,120,121,121,121,122,121,119,121,122,125,126,122,121,121,121,123,120,115,115,119,120,121,121,120,121,120,125,124,121,121,119,120,122,122,113,116,120,121,120,122,122,120,126,123,121,121,120,121,121,122,122,122,122,122,121,120,120,119,122,121,121,122,121,120,121,118,121,122,121,121,121,121,123,123,123,121,121,121,121,118,121,121,123,122,121,121,121,120,122,120,118,118,120,122,120
119,119,116,119,121,121,122,119,122,123,122,122,121,121,121,121,122,122,123,123,122,122,122,120,120,120,122,121,122,121,122,120,121,122,122,121,121,121,122,120,120,120,120,121,121,121,121,121,119,122,122,123,121,121,120,120,119,121,120,120,122,121,121,120,121,121,122,120,118,120,121,121,121,122,122,124,123,120,121,120,121,121,119,122,122,122,122,122,120,122,125,124,121,121,122,121,120,122,119,119,121,120,120,120,121,120,120,120,121,121,122,121,120,121,121,124,122,120,121,120,120,121,121,121,122,121,121,119
120,120,120,120,119,121,122,121,121,121,121,123,123,120,120,120,120,122,121,121,119,121,121,122,121,122,121,123,123,120,120,120,121,123,121,122,122,121,122,121,121,122,121,123,122,120,121,120,122,122,121,122,121,121,121,121,119,120,121,119,120,121,121,120,121,118,119,120,122,121,121,120,122,123,122,123,120,121,121,120,119,122,123,124,123,121,121,120,120,120,118,118,121,121,122,120,120,121,121,121,120,121,121,120,122,122,121,126,123,121,121,120,120,122,122,123,121,120,121,119,120,121,120,119,119,120,120,119
120,120,121,122,120,121,122,121,121,121,121,122,122,121,122,121,120,123,120,122,122,121,121,121,119,120,120,123,122,121,122,120,120,121,122,122,122,121,120,119,120,122,122,123,121,121,121,120,122,121,121,123,122,121,122,121,120,121,121,121,121,120,121,121,121,122,121,122,119,120,120,120,121,123,121,119,121,121,121,121,121,123,120,123,121,121,121,122,121,121,121,122,121,121,121,120,120,120,120,122,121,121,122,120,120,120,122,123,121,121,121,120,119,122,120,122,121,121,121,119,121,122,121,122,121,121,122,120
120,121,120,118,118,120,121,120,121,121,121,122,122,121,121,122,120,121,123,123,121,121,121,120,121,120,120,120,122,121,122,120,120,120,121,123,120,121,121,120,120,122,122,123,121,122,122,121,121,122,120,120,121,121,121,122,120,121,120,122,122,121,121,119,121,122,122,123,121,121,122,121,120,121,121,121,121,121,122,120,119,121,122,124,122,122,121,120,121,121,124,121,120,121,121,120,122,120,115,118,120,120,121,120,122,122,126,126,122,121,122,121,120,121,121,122,121,121,121,121,120,121,122,122,121,120,121,120
120,122,120,122,121,120,122,120,121,121,122,123,121,121,121,120,120,122,121,122,121,122,122,120,120,122,121,121,122,121,120,120,120,120,120,122,121,121,122,120,120,121,121,122,121,121,121,120,121,121,119,120,120,121,122,121,120,121,122,123,121,121,121,120,119,121,120,120,121,121,121,120,122,121,121,122,122,121,122,120,121,122,121,124,122,121,122,121,120,121,119,119,120,121,121,120,119,119,119,124,119,121,121,120,121,123,121,116,119,121,122,122,121,122,122,124,121,121,121,120,120,121,120,124,124,122,122,119
121,121,121,119,119,121,121,121,122,120,121,121,121,121,121,120,121,124,121,123,120,121,121,121,121,120,108,104,117,119,121,120,120,121,125,126,123,121,120,119,121,122,124,125,122,121,122,121,122,121,122,122,121,121,122,122,120,121,121,122,121,121,120,119,120,121,120,121,121,121,122,119,120,121,121,122,121,121,122,121,121,121,123,121,120,121,121,120,121,121,119,123,121,121,122,119,121,121,120,121,121,121,121,121,120,121,122,124,122,121,121,120,121,121,121,122,121,121,120,120,120,120,120,119,120,121,121,120
120,121,122,123,122,121,122,120,122,122,122,122,122,121,121,121,119,121,118,117,117,120,121,120,120,121,121,122,123,121,122,120,120,121,122,122,122,122,121,120,119,121,120,123,121,121,121,121,120,122,121,122,121,121,122,121,121,121,122,121,121,121,121,119,122,123,124,125,122,122,122,121,119,122,121,121,122,122,121,119,122,121,120,123,120,121,121,120,123,121,124,125,122,121,122,121,116,120,121,120,121,121,121,119,121,121,121,123,122,121,121,120,121,122,122,122,121,121,121,121,119,119,121,123,121,122,122,120
121,121,120,121,121,121,121,121,121,121,122,122,120,120,121,120,120,120,122,121,121,120,121,122,121,122,119,120,122,123,122,121,120,121,119,122,122,122,121,119,121,123,123,121,121,121,121,121,121,121,120,120,120,120,121,121,121,122,121,122,120,121,121,121,121,120,122,122,122,120,121,119,121,121,120,122,121,122,122,121,119,121,127,123,120,120,120,121,120,122,114,118,120,122,121,120,115,118,117,119,118,113,120,119,123,123,123,118,123,128,123,121,121,123,123,124,122,121,121,120,120,121,119,122,121,121,121,120
121,119,119,120,120,121,122,121,118,119,118,122,121,120,120,120,119,122,122,123,120,120,120,119,123,124,123,123,121,124,122,121,120,121,120,123,122,120,120,119,122,121,122,122,120,123,122,121,120,120,117,118,122,121,121,122,121,122,125,126,123,123,127,122,122,123,121,122,118,115,113,119,118,119,121,119,122,119,121,119,119,118,111,114,118,121,123,122,123,122,123,127,123,127,122,120,125,124,126,124,125,120,118,121,117,122,124,122,120,120,121,121,122,123,130,128,122,122,122,121,122,120,98,100,116,119,122,120
122,121,129,131,123,122,121,121,123,122,125,125,124,124,124,121,115,121,124,122,119,115,126,120,117,121,123,124,122,117,113,117,124,122,126,126,123,122,125,122,117,123,117,120,123,127,118,120,122,118,119,121,119,123,124,120,117,118,98,94,111,117,113,119,115,118,124,133,125,127,127,120,114,123,129,121,121,117,124,120,130,118,112,115,118,115,115,120,123,126,127,131,125,122,122,123,114,116,122,124,123,122,122,118,122,124,119,120,121,128,123,121,132,128,124,128,121,120,120,120,110,108,123,120,120,122,123,118
129,124,108,112,118,118,122,121,126,117,117,119,118,117,116,118,117,120,120,125,119,114,125,122,121,122,109,104,114,121,110,119,119,119,124,125,119,114,117,117,122,123,117,116,119,128,127,122,120,123,130,128,124,130,124,119,127,123,109,107,120,124,122,123,119,119,125,126,123,118,120,121,125,124,124,125,121,121,122,122,124,127,129,129,124,125,130,123,115,112,117,122,124,125,127,120,127,128,123,122,120,110,111,118,120,119,119,121,122,125,122,119,120,124,115,118,122,121,122,120,116,117,126,127,121,122,124,121
123,124,122,118,120,118,121,121,119,123,138,133,124,118,128,121,121,124,103,106,115,116,113,119,124,121,119,117,120,114,126,122,118,115,122,127,124,129,135,123,121,123,122,118,111,98,112,120,119,121,116,117,127,140,123,118,119,120,121,122,123,125,127,121,120,121,120,127,121,125,122,121,122,124,119,121,121,128,126,122,120,121,115,119,121,122,121,120,120,120,132,134,123,120,119,120,116,120,115,116,122,123,130,121,125,123,114,120,127,128,121,121,120,123,138,137,127,122,117,119,119,123,106,107,117,120,119,119
123,122,130,133,122,103,119,124,121,123,125,128,124,135,118,118,116,118,111,111,118,114,117,119,123,122,113,112,117,114,124,121,123,124,126,131,129,137,126,122,121,123,133,129,123,123,129,122,132,129,112,117,125,117,110,124,115,113,116,118,121,120,122,120,117,124,126,124,119,120,122,119,121,120,123,121,118,122,122,119,121,121,121,122,120,122,119,117,120,120,121,123,123,126,123,119,121,121,119,128,123,115,122,120,121,122,105,104,119,136,125,120,122,121,114,120,117,100,108,119,116,120,126,123,116,105,128,122
122,122,113,132,130,139,125,120,126,124,114,102,112,115,120,120,115,116,122,135,122,116,130,122,119,119,101,106,117,119,122,121,120,121,121,124,123,120,120,116,116,121,129,125,121,124,121,119,121,120,124,123,121,127,129,123,118,120,124,119,121,119,112,120,120,125,129,123,119,126,125,119,123,122,114,116,121,114,118,118,115,117,132,131,119,112,125,120,125,124,115,120,133,152,119,125,123,122,126,123,119,110,124,119,121,122,123,123,124,133,130,123,122,125,123,124,120,113,111,121,120,120,119,119,120,122,124,121
120,124,144,145,129,127,127,122,137,140,126,110,119,132,128,127,116,112,104,108,120,116,119,118,120,124,139,134,121,118,117,117,120,114,127,130,124,126,128,124,121,121,113,111,115,119,120,120,123,123,124,127,121,125,123,122,118,120,120,129,126,126,122,118,123,122,114,115,119,114,116,122,122,126,120,127,126,158,134,121,115,112,80,83,108,103,107,117,120,123,130,133,129,127,124,121,120,123,129,127,121,125,127,122,121,122,122,125,121,122,121,120,123,121,119,119,121,130,120,123,121,121,124,123,120,115,112,119
121,120,129,130,127,133,137,124,120,122,122,126,128,157,122,124,120,128,105,109,117,109,109,119,125,123,131,133,123,122,129,123,118,122,131,128,121,121,123,119,122,119,121,130,116,118,121,121,124,129,128,111,119,115,116,116,102,104,107,115,118,115,121,117,126,126,133,133,130,145,127,122,120,123,124,126,120,117,129,122,123,124,132,129,123,103,105,123,121,121,114,121,124,128,130,121,123,125,124,119,121,128,126,120,119,119,121,124,117,104,123,121,122,122,125,120,118,115,103,115,119,121,125,123,120,119,126,120
119,118,121,126,122,120,124,119,120,122,128,123,121,129,122,120,119,121,123,120,114,125,128,120,117,121,122,121,123,111,110,115,118,118,124,126,125,132,123,120,121,121,118,125,119,127,126,119,116,121,120,116,123,128,123,121,118,117,126,126,127,127,117,119,124,122,112,116,121,128,125,119,122,125,131,126,121,118,117,116,127,126,119,128,121,122,126,120,111,110,119,119,119,119,120,117,122,120,104,101,109,103,108,111,111,114,121,123,129,142,127,122,116,122,131,126,121,123,124,120,120,121,120,122,122,131,125,122
124,123,121,124,127,142,129,124,118,121,127,122,117,94,104,117,118,120,117,120,121,127,121,114,123,123,120,124,133,147,130,124,119,121,126,125,122,119,122,121,121,120,127,128,123,121,122,120,122,122,121,124,121,125,121,121,122,121,124,124,122,129,124,122,121,125,122,113,126,133,117,120,119,117,127,128,120,122,128,122,122,124,125,129,121,102,109,119,115,119,120,119,116,121,131,118,124,123,130,140,130,115,113,118,120,117,72,78,105,113,115,115,125,123,139,136,125,123,128,123,126,126,133,129,130,152,123,121
117,120,124,125,121,115,120,119,117,120,145,128,115,124,126,119,122,126,89,107,115,80,90,111,108,109,131,131,126,135,128,121,121,122,127,125,121,132,137,123,121,122,121,122,120,119,105,117,119,121,124,129,127,122,121,120,119,120,104,102,109,111,125,120,119,121,127,129,133,125,116,119,120,121,121,123,120,119,122,123,120,120,117,121,115,116,123,121,119,120,114,118,121,121,122,119,122,123,119,119,119,118,117,117,117,118,90,99,113,119,121,120,126,123,123,123,118,116,124,122,106,111,123,122,115,106,126,120
125,126,137,130,129,133,105,114,106,108,101,102,99,91,117,113,121,125,132,133,134,137,123,121,120,122,119,119,105,94,114,114,116,121,131,129,129,131,117,119,125,128,128,119,117,118,126,125,117,117,123,123,118,112,116,117,123,120,129,126,118,102,135,123,122,116,105,113,122,152,117,120,120,122,125,123,117,96,96,114,117,119,125,123,124,136,143,122,121,121,123,123,121,119,106,121,117,119,116,118,117,114,117,114,121,121,120,120,120,122,125,122,123,127,126,129,126,128,124,120,117,114,125,119,116,117,122,120
114,122,141,135,126,120,122,120,123,112,111,116,117,111,127,121,118,120,124,127,130,123,104,121,130,136,135,131,126,124,120,124,113,114,135,134,115,110,127,117,124,127,122,131,121,101,116,125,124,120,110,115,125,140,124,122,122,129,134,122,120,121,124,120,117,116,109,124,120,114,118,120,121,124,120,116,121,133,120,121,119,121,119,124,125,121,123,121,120,120,127,123,120,122,124,123,119,120,120,120,114,101,119,119,121,124,129,126,127,142,119,120,120,118,111,114,114,109,120,119,119,126,123,126,120,125,125,119
121,122,127,124,123,119,118,119,121,119,124,123,114,107,125,122,116,126,142,130,127,137,123,119,131,130,124,132,117,99,124,122,109,112,120,109,129,163,131,120,130,121,121,130,126,103,108,125,120,117,124,124,123,131,130,126,118,124,128,125,117,110,127,119,125,125,123,129,138,158,126,124,121,119,116,111,112,112,128,123,119,121,118,116,118,122,112,117,122,122,128,130,121,104,123,122,119,120,109,112,116,127,124,121,121,120,126,129,129,125,121,119,121,122,122,118,114,108,124,124,120,121,121,124,124,136,121,120
118,123,123,123,120,113,118,117,123,120,118,119,122,122,121,122,121,123,120,119,117,125,123,120,123,124,122,130,130,136,122,123,120,117,115,118,123,118,125,122,127,126,120,122,128,142,129,124,122,126,126,128,120,120,124,120,118,116,101,104,117,123,124,121,127,132,143,124,124,133,134,125,119,112,123,130,128,138,120,127,126,127,129,124,130,139,133,124,118,120,121,120,117,109,120,119,120,120,102,108,121,147,130,119,124,125,130,131,135,149,119,123,116,119,111,115,123,115,116,116,120,121,122,125,122,120,125,120
121,122,120,119,117,118,122,122,121,120,119,123,124,123,121,122,119,122,123,124,120,126,119,118,120,122,121,123,122,118,119,120,122,120,132,126,121,126,129,120,119,123,125,122,125,123,109,123,127,122,97,102,115,121,122,121,116,116,132,135,127,122,123,120,125,122,118,126,123,115,122,120,121,121,122,114,119,138,127,120,113,117,121,124,115,103,108,118,125,122,130,127,131,121,131,122,125,125,118,119,123,141,118,121,126,125,99,105,119,118,124,121,116,115,132,131,122,125,118,120,120,125,132,128,127,124,121,119
119,120,119,123,118,118,122,119,119,120,121,118,113,114,123,117,119,122,119,124,124,121,111,120,120,125,124,124,123,122,123,121,118,120,118,117,119,120,123,121,120,122,130,130,128,131,125,120,120,120,114,114,120,124,119,119,123,125,148,138,125,120,122,118,121,120,100,112,119,113,122,124,119,116,131,127,120,129,121,119,127,128,131,126,126,119,121,122,117,117,124,125,122,123,123,121,120,124,127,131,122,121,122,118,119,120,92,99,117,125,122,121,122,123,125,122,120,115,121,121,118,118,116,120,120,121,120,117
125,129,134,129,131,136,125,125,122,123,113,123,117,107,120,122,122,127,125,119,118,132,116,122,118,119,125,127,126,127,121,119,122,124,127,122,118,117,122,118,125,121,111,125,119,130,133,121,117,118,108,105,114,113,103,120,123,128,133,130,128,121,126,121,120,122,129,129,126,125,123,121,124,116,117,124,122,124,126,123,120,122,119,122,120,120,120,119,122,124,126,124,121,121,121,120,121,128,119,115,117,121,120,118,110,103,123,121,126,131,124,123,124,128,105,119,121,120,121,121,126,126,127,120,116,119,121,122
113,117,134,133,131,128,127,121,124,129,137,126,118,115,128,123,117,112,101,104,125,142,112,116,119,121,117,122,120,120,121,117,124,123,129,129,125,114,125,123,122,123,118,123,123,134,124,120,122,121,128,131,123,121,123,122,119,119,114,110,116,117,117,119,121,119,115,114,116,132,124,119,121,117,122,135,135,125,123,123,115,121,131,125,122,121,121,117,124,125,118,120,120,122,123,122,123,120,120,124,121,120,121,120,122,123,115,114,120,122,122,121,120,122,127,126,122,123,122,121,119,123,119,122,119,118,121,119
121,121,130,122,120,120,122,121,122,123,124,133,130,135,133,124,124,120,110,108,119,111,116,124,125,122,116,118,125,134,119,121,119,119,127,128,128,139,122,120,122,120,128,129,123,132,136,124,117,115,128,133,123,125,125,121,115,119,119,115,118,113,118,118,121,124,130,131,122,113,116,117,122,122,127,124,122,119,124,121,124,127,118,125,122,119,122,122,119,122,132,124,119,119,120,120,120,120,121,123,120,120,123,120,125,126,116,117,117,115,116,121,122,127,121,128,118,104,111,119,123,122,102,109,121,120,121,120
120,125,132,125,120,119,124,121,122,123,129,127,119,116,119,119,119,120,121,127,126,122,120,120,113,116,111,113,119,121,122,120,122,122,115,122,118,123,121,120,117,118,99,104,120,114,120,119,117,118,125,123,122,128,127,121,120,124,128,127,125,121,117,119,122,122,122,120,121,124,124,121,120,121,119,122,122,123,122,121,121,125,122,122,121,115,118,119,120,122,122,121,122,126,124,120,118,120,120,122,119,120,124,120,122,121,119,119,119,112,119,122,121,123,125,124,128,142,124,121,120,122,125,120,122,112,122,120
127,126,117,128,126,123,124,120,119,118,97,95,113,119,119,119,122,123,130,132,124,122,122,121,120,120,128,125,121,121,122,120,119,120,122,121,122,122,121,119,120,122,119,120,117,115,121,120,120,122,119,122,124,125,115,118,120,118,118,117,119,120,124,120,119,123,141,140,127,134,129,121,122,118,76,101,117,110,110,121,120,122,106,108,118,121,122,120,120,122,134,136,127,123,125,120,120,121,126,123,121,121,120,119,116,118,132,127,121,126,123,119,116,119,123,125,124,122,129,121,125,126,112,114,121,117,116,117
125,126,135,131,136,152,128,125,116,118,121,125,121,116,121,118,123,122,114,117,116,115,116,120,122,123,119,119,120,121,123,121,119,120,122,119,118,124,126,121,121,123,122,126,122,120,121,122,121,125,119,117,121,117,119,121,121,122,121,121,123,125,125,120,122,120,122,118,118,118,120,120,122,122,133,130,123,124,124,121,123,125,119,126,125,117,114,123,121,121,130,123,123,124,124,120,120,117,96,104,116,122,123,121,121,121,126,127,123,119,115,121,124,125,124,124,125,127,124,122,118,121,123,124,120,122,126,119
124,123,126,129,122,114,111,121,119,118,104,109,114,121,125,120,120,123,125,125,123,124,124,121,122,122,115,121,123,128,129,122,122,122,128,127,116,102,116,121,115,114,120,124,130,140,122,118,122,121,121,121,117,112,120,123,112,112,128,130,126,123,121,119,123,122,98,109,122,120,123,121,119,121,122,118,119,121,122,121,123,126,131,133,124,118,118,121,119,122,112,113,122,124,119,120,123,123,126,128,122,120,119,121,119,119,125,125,120,119,119,118,123,125,135,126,122,123,122,122,113,114,107,115,120,122,122,120
119,119,117,114,116,121,122,118,120,123,124,124,121,117,125,120,121,123,123,125,125,126,116,120,122,122,123,124,123,120,120,123,119,117,120,119,118,121,125,121,121,121,119,121,121,139,129,121,127,130,133,129,121,106,114,121,120,115,98,110,117,129,119,119,114,122,140,133,123,120,112,122,124,119,93,99,112,124,122,119,122,121,128,127,122,121,123,122,129,131,125,127,134,127,129,126,118,116,118,118,118,113,112,117,119,119,120,119,120,127,126,120,122,126,144,136,126,124,126,123,123,122,100,114,120,122,121,121
113,117,110,109,118,125,122,116,120,121,103,114,119,114,111,122,122,126,134,135,126,127,125,122,123,122,125,126,123,123,122,120,120,121,121,120,120,120,120,119,123,122,121,122,125,122,124,121,120,120,115,120,118,116,115,117,121,123,124,124,124,125,127,120,119,118,119,120,121,118,119,121,122,124,123,121,120,118,127,123,120,120,120,124,120,121,120,119,118,119,116,114,110,104,106,115,118,118,123,123,122,124,124,119,122,124,123,122,120,115,122,120,120,122,137,133,122,127,120,119,125,120,88,106,114,111,115,120
120,120,107,111,117,123,121,118,122,124,134,129,123,121,122,121,120,124,127,125,120,120,120,119,123,121,121,125,120,120,120,120,123,124,140,139,126,126,127,121,116,106,50,71,110,118,115,122,125,130,135,130,128,127,128,125,122,124,126,126,119,121,124,121,121,121,123,122,120,118,122,122,122,123,123,123,121,116,115,121,117,119,118,117,118,127,127,118,128,125,121,121,122,114,111,121,117,118,119,122,121,121,124,119,120,123,125,122,122,122,121,120,121,122,113,118,121,121,122,122,120,120,125,125,123,123,123,119
119,121,127,121,119,121,120,119,122,122,128,121,115,123,133,123,118,119,107,121,118,99,95,110,122,121,118,114,121,129,130,123,118,121,127,127,123,124,124,120,120,120,128,132,122,121,121,120,125,132,136,122,124,126,123,123,111,110,100,108,127,122,126,124,122,123,137,131,124,125,122,120,121,123,126,126,120,118,121,120,124,126,125,126,125,120,121,122,119,122,120,121,122,124,121,119,120,122,120,123,122,124,122,119,119,120,127,124,120,113,118,120,126,123,113,119,129,130,135,126,121,122,127,128,121,113,106,120
121,124,121,120,121,122,124,119,119,121,119,123,119,126,131,120,122,123,131,122,119,119,109,120,118,118,123,128,122,117,121,119,119,118,108,109,117,118,119,119,122,121,123,123,121,122,123,121,119,123,122,122,120,121,122,121,116,119,133,133,123,122,121,120,123,123,122,127,122,122,122,120,120,118,118,117,122,121,123,122,122,124,119,124,119,116,116,118,122,124,129,129,124,123,123,122,124,126,125,127,128,125,124,122,122,121,120,122,119,122,122,120,120,123,123,123,120,116,124,119,118,118,116,120,117,118,119,118
120,121,115,109,115,118,120,119,122,122,123,123,120,122,123,120,123,123,123,125,124,122,121,120,120,122,133,133,125,132,130,121,122,124,103,104,120,108,106,119,119,121,127,128,122,121,123,120,122,122,123,125,123,125,125,121,119,119,122,124,118,120,120,119,121,125,139,131,126,120,120,120,119,118,104,121,117,119,121,120,121,123,125,109,118,116,117,120,117,109,105,110,118,126,124,120,123,124,130,130,123,123,124,120,117,119,123,125,116,119,125,120,122,125,124,129,125,116,113,119,120,124,121,124,126,131,128,122
118,120,125,123,121,123,119,120,122,121,117,116,116,117,119,119,118,122,128,126,123,119,118,119,121,119,114,119,120,121,124,122,121,124,125,126,124,122,122,120,120,120,125,124,122,120,120,118,120,123,121,120,117,120,121,120,122,121,121,122,121,120,121,120,125,125,129,123,121,121,121,121,112,114,104,113,119,119,119,119,121,121,125,128,124,121,123,121,119,119,113,119,118,119,118,119,118,119,128,127,122,122,124,119,121,119,84,98,117,120,121,120,121,123,130,134,130,125,117,123,120,123,127,124,118,112,118,118
118,118,122,125,116,123,125,119,120,120,121,125,121,112,115,116,121,120,120,118,116,130,131,122,119,122,117,120,121,119,121,119,120,122,125,126,123,124,125,120,118,117,123,122,119,114,115,117,122,120,107,116,122,124,125,121,120,122,131,124,122,121,122,121,119,121,130,125,119,121,123,119,122,124,120,125,123,121,122,120,121,120,117,117,121,122,121,120,124,121,121,124,124,126,129,124,118,121,120,118,120,117,118,117,121,123,130,128,121,119,119,120,121,124,139,129,122,120,122,122,120,121,108,121,122,125,124,120
118,121,126,119,117,110,106,114,121,123,127,127,124,123,125,121,121,122,122,123,121,122,121,121,120,122,120,123,123,120,120,121,121,121,121,125,125,124,122,122,121,120,120,116,118,122,125,120,120,122,122,125,122,118,118,119,118,121,115,118,122,124,122,121,120,121,121,121,121,123,123,120,120,121,123,125,122,120,121,120,121,125,127,130,123,121,126,121,122,121,115,120,118,117,119,121,119,120,121,115,118,124,123,119,122,122,129,131,125,122,119,121,122,123,124,123,121,123,125,118,121,119,116,122,121,110,116,123
118,119,116,133,126,128,128,119,123,126,103,103,118,119,126,124,120,120,122,121,120,116,114,118,122,121,128,126,121,123,125,121,119,122,124,125,121,119,120,119,122,120,122,124,122,115,120,120,120,119,111,115,119,124,126,121,117,122,126,123,121,118,118,117,121,121,121,121,124,125,123,121,121,123,126,122,119,117,119,120,120,123,111,121,120,118,120,120,119,119,117,117,116,124,128,119,122,115,91,96,119,116,119,122,121,125,130,128,120,117,118,116,119,118,124,124,122,122,122,120,121,124,121,126,120,120,121,119
120,122,128,122,123,120,121,119,120,123,132,127,125,126,130,121,120,118,106,112,113,106,110,119,119,120,125,124,123,124,123,119,122,124,129,126,123,128,125,121,121,124,124,124,120,114,123,121,118,120,118,118,116,115,113,114,120,121,121,121,121,125,130,121,119,119,122,125,123,118,116,117,122,121,122,122,122,119,117,121,122,124,122,122,121,130,136,123,118,122,122,124,116,113,111,113,122,116,116,117,125,122,119,120,117,117,110,109,116,123,119,119,120,121,129,130,122,119,121,121,120,123,123,124,124,125,124,121
122,121,123,132,126,128,127,121,118,119,103,101,114,117,118,118,120,118,95,106,115,115,115,117,122,123,123,125,125,125,123,122,120,121,125,124,123,122,123,120,118,121,124,124,121,120,119,118,121,121,121,122,120,122,123,120,120,122,119,119,121,123,121,118,119,120,121,125,124,124,120,119,119,121,120,116,119,121,123,122,121,121,117,119,118,121,121,123,120,123,122,124,123,130,130,120,119,121,119,125,122,108,112,121,120,119,117,114,118,119,113,120,121,122,128,127,128,125,116,120,121,126,119,123,122,122,130,123
119,122,130,123,120,118,121,119,123,122,119,124,122,128,126,124,122,121,116,114,121,110,120,122,121,123,126,124,121,124,123,119,124,121,122,121,126,136,129,124,119,121,129,124,119,111,114,118,121,124,130,127,121,122,126,121,118,117,100,109,117,118,115,118,115,121,127,127,122,126,125,119,122,122,126,124,123,121,117,120,124,125,122,125,124,125,126,123,121,121,118,119,119,119,119,120,119,120,122,124,124,127,126,120,120,118,118,120,117,113,112,117,122,124,124,127,127,123,121,123,119,121,116,118,120,115,112,120
123,123,138,126,122,135,133,122,119,121,104,117,124,123,132,121,121,124,131,129,124,119,116,123,120,120,123,123,119,115,116,116,121,122,113,116,121,119,116,120,121,121,118,119,124,127,131,121,121,121,122,119,115,118,117,120,118,122,118,123,122,117,121,119,121,123,125,125,126,131,128,120,119,120,124,125,119,111,108,121,121,120,121,120,122,125,126,121,122,122,119,121,122,123,123,121,115,117,123,124,122,125,124,118,122,122,124,125,121,114,118,121,121,125,122,120,121,126,127,120,120,124,124,127,129,122,120,123
118,116,123,122,122,135,132,119,124,121,119,123,124,107,111,126,119,122,139,125,121,126,128,120,120,121,108,117,117,122,128,125,119,121,125,130,125,125,119,119,119,121,124,115,119,117,130,122,119,122,120,122,120,116,108,115,122,121,126,125,124,131,128,121,120,120,116,121,118,117,124,119,120,123,137,134,128,128,126,122,120,122,117,109,113,117,119,119,119,121,116,115,120,128,130,118,123,119,122,124,122,116,109,125,121,122,125,127,124,125,126,120,118,123,128,127,124,122,124,120,123,124,117,119,122,121,114,120
120,122,124,123,121,120,122,120,125,124,123,122,128,132,121,124,118,122,120,124,122,125,131,119,122,117,127,121,122,129,126,123,121,121,114,120,123,119,107,120,124,121,119,119,117,105,126,123,114,119,118,115,112,119,116,114,122,123,127,129,128,132,132,122,119,121,118,121,120,115,114,118,122,121,121,122,121,122,126,119,119,120,126,122,118,117,120,117,121,124,119,125,125,132,128,122,120,123,126,121,118,119,124,120,120,123,126,124,121,110,111,119,122,120,114,121,120,118,117,118,123,124,125,127,123,122,124,122
117,118,120,115,121,117,117,117,118,120,123,126,121,122,117,120,123,126,135,127,121,123,123,122,117,118,107,123,120,120,128,120,123,123,132,124,130,142,127,122,120,122,124,125,122,120,123,117,121,124,120,118,113,116,113,120,119,122,124,125,128,135,131,120,121,120,122,123,123,128,116,121,120,120,128,133,127,126,132,124,122,124,99,104,116,104,114,117,120,121,127,129,119,108,99,115,122,123,127,127,130,140,140,125,120,121,123,127,121,114,122,121,121,122,116,112,118,126,127,121,119,122,126,125,121,122,122,121
119,119,125,127,125,127,125,120,122,119,119,127,121,107,127,122,118,119,92,93,111,108,113,121,122,124,127,130,124,123,125,120,122,122,124,121,122,127,127,121,123,120,121,123,118,112,131,122,118,121,121,122,120,116,111,117,118,120,119,117,119,132,133,118,124,123,122,124,123,115,127,125,121,123,119,119,122,113,101,119,122,122,126,126,123,129,130,122,118,122,119,120,120,129,127,121,120,122,121,123,127,133,124,123,119,121,122,122,121,121,119,116,123,123,129,136,128,117,117,123,121,118,87,92,114,151,137,120
125,121,121,133,131,98,98,129,123,123,123,120,121,121,126,119,119,123,127,129,129,144,130,122,123,121,115,119,119,119,125,121,121,122,126,123,122,121,125,120,121,122,122,126,121,119,119,120,122,124,141,128,122,123,121,120,123,119,87,95,116,125,128,124,119,122,129,130,119,98,95,113,120,121,123,124,122,129,129,122,123,125,128,125,122,121,121,121,122,122,118,124,122,126,128,121,121,120,120,124,124,130,119,124,119,120,121,116,116,117,113,116,118,124,121,121,127,138,121,119,122,122,123,126,127,120,117,126
121,121,120,123,121,116,118,122,120,120,121,123,117,118,133,122,120,122,128,125,126,135,127,121,125,121,108,112,119,114,110,122,117,119,123,123,121,120,123,116,122,122,135,131,126,131,124,122,119,117,107,107,122,136,137,122,128,130,124,125,127,108,113,130,113,115,120,123,119,117,116,114,123,122,134,130,127,134,130,123,124,119,100,102,114,117,119,121,119,119,125,129,126,127,124,121,122,121,122,124,119,120,123,122,122,122,118,116,117,119,123,121,118,119,123,125,119,115,106,114,121,121,118,119,124,126,123,122
120,122,124,124,125,133,130,122,121,122,134,128,123,122,127,123,123,122,112,118,118,103,112,122,116,115,109,111,115,123,120,118,120,125,130,130,124,122,131,123,123,122,120,120,120,129,137,122,119,122,121,124,124,123,114,123,122,122,124,125,123,112,118,123,121,120,117,121,123,124,125,119,123,123,130,122,119,130,129,122,123,121,111,121,123,111,111,121,120,123,118,120,121,122,123,120,119,120,122,124,121,123,125,120,118,121,128,130,124,122,126,120,121,124,103,101,117,119,117,123,111,113,115,121,116,113,112,115
123,120,117,116,121,122,122,125,120,121,123,123,123,133,130,121,121,126,125,125,124,127,120,123,122,121,123,123,121,115,124,123,117,116,112,110,113,102,92,109,120,123,125,125,125,128,132,122,119,119,121,122,119,123,126,121,121,122,120,122,120,112,113,118,119,121,121,123,122,120,126,121,122,122,125,125,124,138,145,125,116,116,110,111,117,114,100,110,124,123,119,118,120,124,125,122,119,119,123,126,122,122,126,121,121,123,129,127,124,123,123,120,121,119,109,117,119,122,124,122,124,123,117,121,120,114,112,120
118,115,114,116,120,129,122,117,123,123,120,119,119,115,113,123,122,124,126,127,124,124,129,123,118,119,118,119,118,110,107,118,121,121,123,125,124,128,122,120,126,124,120,121,119,109,124,122,116,117,120,118,117,110,114,115,120,122,119,123,125,127,137,123,120,122,121,124,119,105,104,117,122,123,124,114,117,127,126,123,119,120,115,120,119,118,118,116,120,121,126,124,124,131,127,121,120,122,116,121,121,125,119,120,119,119,127,126,122,125,121,119,125,124,115,122,125,121,115,126,122,122,123,123,121,117,111,120
121,121,120,122,123,127,128,121,119,121,123,127,121,119,118,119,125,122,120,121,122,134,143,123,122,120,120,119,119,108,103,119,117,120,124,123,122,140,133,115,129,123,118,120,123,118,129,126,106,119,127,125,121,103,116,113,128,120,118,119,119,117,108,113,117,124,121,122,121,124,131,126,117,120,120,122,126,128,120,120,120,121,121,121,118,112,111,117,120,122,122,124,125,127,130,124,120,120,121,121,118,108,113,118,118,119,125,123,121,121,125,118,123,122,117,114,117,116,122,121,120,122,122,128,123,118,126,119
119,120,123,115,116,117,112,117,119,121,110,118,121,124,128,119,123,125,127,123,122,126,130,122,119,118,124,124,119,113,99,116,121,119,108,113,119,124,127,121,122,122,126,126,123,123,121,120,117,120,119,119,119,118,116,116,124,121,122,124,124,121,123,124,123,124,121,119,117,135,135,119,112,115,116,121,119,96,94,112,122,123,119,123,125,140,129,123,122,124,124,124,123,126,123,124,121,120,124,124,123,116,116,121,118,121,121,123,122,129,133,119,120,121,119,119,119,103,107,118,118,120,122,122,121,126,128,116
122,122,123,122,119,108,106,127,120,119,123,129,127,125,130,120,123,124,121,110,116,120,119,123,119,122,118,127,122,122,122,117,121,122,124,122,123,124,124,122,120,123,119,121,118,125,122,121,119,121,125,125,121,121,121,122,122,124,118,121,123,118,123,127,121,120,127,122,122,131,127,119,119,122,111,116,116,101,112,117,119,121,123,123,121,123,117,115,122,122,121,123,123,136,133,124,121,123,129,128,121,124,117,116,114,113,81,95,112,95,92,114,126,126,129,127,125,133,132,123,119,120,124,123,120,116,126,120
121,121,120,124,122,130,124,120,122,122,121,120,122,113,116,124,117,121,118,119,117,111,109,110,120,122,123,125,124,130,132,124,121,119,117,119,121,122,128,122,118,120,131,123,121,119,119,116,120,124,126,127,121,117,114,118,119,116,91,106,117,121,122,121,122,123,128,126,123,122,122,120,121,122,128,123,123,128,117,120,120,120,110,115,115,105,108,119,121,121,123,124,123,124,120,121,120,122,121,121,122,118,118,119,121,122,128,128,127,158,162,124,124,124,109,121,123,72,70,127,118,119,118,112,119,135,136,117
124,122,128,129,125,125,127,123,120,122,122,123,124,124,125,122,121,123,121,124,121,116,124,120,117,117,123,120,116,112,104,109,127,123,118,116,123,125,126,126,119,121,118,121,122,128,126,121,122,123,126,130,126,114,119,120,120,122,125,118,118,121,119,118,116,119,121,125,121,120,120,120,123,123,119,125,125,129,128,121,120,120,117,117,118,109,106,118,120,121,125,123,122,123,122,119,122,122,119,121,121,122,123,121,119,122,122,122,121,119,120,120,116,120,121,124,123,129,123,122,125,123,121,122,121,117,120,120
119,121,120,122,122,124,129,120,119,121,120,119,114,97,93,114,121,122,122,121,124,130,128,122,121,123,122,123,123,131,128,122,121,119,120,127,126,122,124,125,118,121,124,119,118,118,109,116,119,119,112,115,115,115,118,115,121,121,121,122,122,126,127,122,120,124,133,131,126,123,126,121,121,117,102,110,118,107,118,119,117,121,127,124,118,110,110,114,122,122,123,125,124,126,125,122,122,123,119,119,121,123,123,119,120,119,122,123,122,118,119,120,120,124,140,126,123,128,126,120,123,122,104,118,119,112,127,124
118,119,121,120,118,122,124,116,123,122,126,125,125,129,137,124,114,118,120,119,113,100,87,107,121,121,119,120,123,130,137,125,121,121,120,121,124,133,134,119,120,119,120,119,113,98,98,117,120,121,117,124,123,130,142,120,122,124,122,118,115,92,96,117,119,118,121,122,123,128,130,120,121,123,131,130,125,125,131,122,123,121,110,115,116,120,122,120,121,123,123,124,126,139,145,123,116,120,129,127,119,108,99,113,122,120,114,116,122,116,120,124,119,122,126,125,122,124,122,118,120,121,121,123,123,129,130,122
119,123,123,122,124,138,124,119,120,122,118,120,118,106,104,120,120,121,132,125,125,131,130,120,123,122,116,118,120,120,117,120,119,122,124,122,122,125,124,121,122,123,122,123,120,121,120,120,122,124,129,127,124,131,132,122,120,121,107,108,110,98,87,115,120,121,123,122,120,124,127,121,121,122,126,127,126,130,140,122,122,123,121,121,116,101,95,118,119,121,113,114,118,125,128,121,122,120,125,125,122,131,124,119,116,119,116,121,117,103,92,115,123,123,122,121,127,126,130,125,122,121,124,125,124,134,136,123
120,120,124,122,121,117,115,120,121,120,115,123,125,126,126,121,122,121,114,116,117,115,118,122,115,119,112,116,120,121,117,117,124,122,128,127,123,122,125,123,120,120,118,115,118,119,118,119,120,123,120,123,122,127,127,119,116,118,116,121,120,116,125,119,119,122,125,121,118,106,99,116,120,120,114,122,121,136,138,121,123,123,123,120,119,107,111,122,124,124,123,125,127,131,123,121,118,121,117,122,123,125,125,121,119,115,117,116,118,116,123,118,120,121,119,120,120,114,115,121,122,123,121,122,123,127,126,121
121,124,123,124,123,121,121,121,120,119,120,121,119,117,123,119,119,121,121,120,120,125,125,120,122,122,123,128,126,119,117,121,119,120,114,112,115,127,121,117,121,121,125,124,125,128,121,121,119,121,119,120,120,125,127,121,120,123,128,125,122,116,113,118,122,121,120,123,121,127,133,122,121,120,111,117,120,124,121,122,118,123,126,122,122,127,128,116,118,120,125,126,120,104,97,118,120,122,126,124,125,125,132,122,122,121,116,121,122,125,123,120,118,120,114,115,120,130,123,120,119,121,124,125,119,106,101,120
120,121,122,123,125,131,138,124,116,120,118,117,113,100,96,110,123,124,122,123,124,126,135,124,117,118,118,121,119,114,114,120,119,122,126,121,118,110,112,117,122,121,113,121,123,137,134,121,121,121,122,122,122,122,118,121,118,122,125,122,120,114,106,117,121,121,121,122,123,126,121,123,123,122,119,119,119,119,131,122,119,121,115,116,117,120,118,116,121,122,123,122,123,124,127,122,122,123,127,126,122,116,111,122,117,117,127,121,121,124,127,121,123,124,101,116,121,123,122,122,121,122,128,123,121,122,123,121
120,122,122,122,121,123,120,119,120,122,123,123,119,115,115,119,123,123,122,124,123,128,128,123,119,120,121,120,120,115,115,118,121,123,122,121,121,122,129,122,120,118,114,120,118,108,104,115,121,121,116,120,121,127,128,122,120,124,127,127,120,114,113,120,116,118,115,117,121,123,119,116,121,121,120,124,123,135,142,122,121,122,123,123,120,110,100,122,119,122,122,120,117,116,113,116,122,121,124,124,124,126,128,122,121,119,116,122,119,118,119,120,121,119,115,116,121,122,122,119,120,122,124,122,121,125,125,119
121,121,127,126,122,114,106,119,121,120,114,117,121,125,125,121,121,123,122,123,122,124,121,120,119,121,109,116,118,109,115,120,120,121,126,125,125,137,133,123,120,121,121,122,120,110,106,119,122,122,121,122,122,134,132,122,119,121,121,123,118,113,108,116,122,122,114,119,125,124,124,123,120,123,124,123,120,123,124,120,119,119,122,123,121,115,121,120,120,122,122,121,120,118,116,121,121,121,120,120,120,123,121,120,121,122,122,125,122,125,124,122,118,120,119,118,118,117,117,117,118,121,120,124,123,125,119,117
119,117,125,119,121,123,126,121,120,119,112,117,117,114,112,118,120,120,119,120,121,127,123,120,121,123,118,122,122,130,119,118,122,122,119,118,116,117,129,123,117,118,118,123,125,121,117,118,119,122,141,125,116,107,117,116,121,122,108,118,122,123,129,122,120,123,133,131,124,119,115,121,120,123,128,125,125,133,136,121,121,119,113,120,119,110,115,118,118,121,126,124,122,123,123,118,119,119,119,120,116,110,116,115,118,119,119,124,123,134,129,121,126,128,135,129,132,134,132,127,120,120,113,119,115,106,110,116
119,120,122,119,120,130,136,120,124,124,124,127,127,127,118,124,122,123,123,123,122,127,121,123,121,120,118,118,117,122,124,120,120,122,122,121,119,117,114,121,121,122,115,122,128,129,131,124,120,122,126,125,122,121,123,119,123,122,122,120,121,123,119,120,122,122,121,124,120,119,122,121,120,121,125,125,125,124,123,120,118,121,117,125,121,121,122,119,123,121,98,109,120,116,127,123,113,118,123,121,115,116,115,112,122,122,124,125,125,122,117,121,124,125,126,128,126,133,126,122,120,121,123,124,121,117,121,121
122,122,114,119,120,116,109,122,121,121,121,120,120,125,128,122,121,120,123,124,122,120,135,123,117,122,119,120,120,116,112,115,121,121,122,125,125,132,133,122,122,122,122,122,119,117,113,123,121,122,120,121,124,130,132,121,122,121,120,121,117,98,102,120,121,122,125,128,126,128,133,122,119,121,124,117,120,135,121,116,122,123,122,123,119,114,121,123,117,117,111,114,118,115,118,117,122,124,126,124,121,116,121,120,121,123,117,124,125,131,122,120,122,123,124,124,122,123,122,120,118,121,122,120,118,115,121,120
121,123,122,119,119,125,122,119,120,122,122,124,121,116,118,120,121,120,114,118,120,121,121,119,121,122,124,125,122,123,125,122,120,121,121,123,120,120,121,121,121,122,121,121,119,122,121,121,121,122,121,121,120,119,121,122,121,123,121,127,124,127,122,121,120,121,121,116,118,116,121,120,119,120,120,122,118,118,119,120,120,122,121,123,123,128,124,120,120,121,122,123,122,120,120,120,122,123,121,123,122,121,124,120,121,121,121,121,120,119,119,118,122,123,120,117,119,125,124,121,118,120,121,123,120,119,120,119
121,122,122,126,126,124,123,111,123,121,122,126,123,119,118,133,118,120,119,116,117,116,121,117,121,122,120,124,121,121,122,119,119,120,121,121,122,120,120,116,118,121,121,123,122,120,122,119,119,122,122,124,122,122,120,117,121,122,121,120,120,122,122,127,121,121,120,122,122,122,122,120,120,121,122,127,122,121,119,119,123,122,122,117,119,122,121,116,119,119,120,124,120,121,121,120,120,120,122,127,124,120,121,119,122,122,120,117,118,121,121,122,121,122,122,123,120,120,120,121,120,122,122,124,122,122,122,120
119,121,121,121,122,121,120,119,119,120,120,120,121,121,121,120,119,122,121,123,122,121,120,117,120,122,122,124,121,121,122,124,122,124,120,122,122,121,121,122,118,117,119,119,119,121,121,119,121,124,122,123,123,121,121,120,122,121,121,124,122,122,122,121,120,120,121,122,122,122,121,121,121,121,120,117,116,120,121,120,122,121,121,120,120,120,121,120,122,123,122,125,123,122,122,121,120,120,121,123,121,122,121,121,120,120,120,122,123,121,121,120,121,122,120,121,119,121,122,120,120,121,120,120,121,121,121,120
120,122,121,121,121,121,121,120,120,121,122,122,123,121,120,119,120,122,122,122,122,121,119,119,121,122,120,120,119,120,122,125,120,121,120,123,122,121,119,119,119,120,120,120,120,121,123,121,122,122,120,117,119,121,117,118,119,125,121,125,122,121,120,110,122,121,122,123,123,123,122,135,119,119,120,121,122,122,122,118,123,123,122,122,118,118,119,126,121,122,120,124,122,121,122,120,120,123,121,120,120,122,123,118,120,118,118,121,122,121,121,120,120,120,122,122,121,121,118,120,122,122,121,122,122,122,128,117
121,124,120,120,117,117,121,127,120,121,121,122,122,121,120,117,119,119,121,125,122,121,120,118,121,126,123,120,121,122,123,119,119,118,119,121,121,121,122,123,119,126,121,121,123,122,121,117,123,119,121,124,121,121,121,120,121,121,121,124,122,122,121,119,120,119,121,119,116,120,122,119,119,121,120,123,121,121,122,121,121,123,121,121,123,121,122,120,120,121,122,123,122,122,121,120,120,121,121,121,122,121,119,120,119,120,120,121,118,119,120,118,123,123,123,123,123,122,133,124,118,120,121,122,122,122,121,120
121,121,120,121,121,121,121,120,120,121,121,121,122,122,122,119,119,121,121,123,121,120,121,121,122,123,121,121,121,122,122,121,119,121,121,121,120,121,121,120,121,120,121,123,122,121,121,120,120,121,122,123,123,121,120,120,121,121,121,119,120,122,122,120,119,121,122,122,121,120,121,120,119,122,120,122,122,121,121,118,122,118,120,119,120,121,120,118,120,119,122,123,123,122,121,118,121,121,119,121,120,121,119,119,121,124,122,121,121,120,122,121,119,123,120,123,122,122,121,119,120,121,120,122,119,118,119,118
121,123,121,123,124,124,135,123,122,122,121,124,122,121,120,120,120,122,121,121,122,121,122,120,122,125,122,122,119,121,121,123,118,118,119,121,122,121,120,119,121,122,120,121,121,121,122,119,119,122,121,123,122,121,121,120,121,121,122,124,121,121,121,121,120,122,121,122,122,121,121,119,120,123,121,122,120,122,122,120,120,120,120,121,122,122,123,121,121,123,121,123,119,120,120,121,119,120,120,119,120,121,122,119,120,122,121,124,123,121,122,120,121,121,121,122,122,121,121,120,121,122,121,121,120,121,122,120
120,119,121,124,122,122,122,118,120,121,119,119,120,122,123,121,121,121,122,123,122,121,121,120,121,122,122,124,123,122,121,120,120,122,122,124,123,121,121,120,120,121,121,118,115,120,121,120,121,121,121,122,123,121,121,121,121,122,121,123,123,122,122,120,120,121,120,119,119,121,121,121,120,122,120,123,122,121,121,119,120,121,122,123,123,122,122,120,122,121,119,120,119,121,121,122,120,122,121,120,119,119,121,121,121,121,121,124,122,119,121,117,123,120,122,122,123,124,129,133,119,122,123,122,118,116,116,111
119,120,119,123,122,120,121,119,120,123,120,117,116,120,121,116,122,122,121,125,123,121,122,123,120,122,121,122,122,121,121,117,122,120,120,120,120,121,121,122,121,121,121,123,121,123,129,117,120,119,121,123,122,118,117,118,121,121,120,119,119,128,124,120,122,123,121,120,121,120,120,112,118,121,120,123,122,121,118,120,120,121,121,123,121,117,119,128,124,122,124,123,125,135,148,135,121,121,122,120,119,116,115,126,120,119,121,121,120,122,124,118,122,121,122,125,124,121,123,124,123,122,121,122,121,123,135,135
110,121,122,121,117,111,87,120,123,119,122,123,124,130,136,135,120,121,123,122,125,122,122,115,119,121,123,121,117,117,118,115,120,121,121,123,123,122,121,120,120,122,120,119,120,122,122,120,120,121,122,122,123,121,122,121,121,121,122,125,123,122,121,120,121,122,121,118,120,121,120,120,121,122,120,119,121,121,121,121,120,122,121,123,122,121,121,120,121,123,121,122,122,121,121,120,120,122,121,121,121,121,120,119,120,120,121,122,122,121,121,121,121,123,120,121,119,120,121,121,122,122,120,123,120,121,121,120
120,122,120,118,121,121,121,120,120,120,121,123,122,122,122,120,122,120,121,122,121,122,122,124,123,124,120,122,121,122,129,122,122,123,121,122,122,123,134,138,119,121,121,121,120,120,119,117,119,121,121,122,122,121,121,120,119,122,123,123,121,121,122,120,118,120,121,122,122,121,121,120,120,118,121,120,121,121,121,120,120,122,121,123,122,121,121,120,121,122,121,121,121,121,121,121,120,121,122,122,121,121,121,120,121,122,120,120,121,121,122,120,123,122,121,122,121,122,122,121,120,122,121,122,122,120,121,121
120,121,121,120,118,121,122,120,121,121,121,124,125,121,121,119,121,121,122,123,121,121,121,119,120,122,121,121,121,121,122,120,120,119,120,122,121,121,122,120,119,120,122,122,121,122,121,121,120,121,121,123,122,121,120,120,121,122,122,123,122,121,121,120,121,122,121,122,122,121,121,120,121,122,121,121,119,120,121,120,122,122,120,121,121,121,122,121,121,123,121,123,122,121,121,119,119,120,121,121,121,121,122,121,121,122,121,122,122,122,122,120,121,120,122,122,122,121,121,120,119,121,120,122,122,121,121,121
120,120,120,120,121,122,122,120,120,120,121,123,124,120,120,119,121,122,121,119,117,120,121,120,122,121,121,124,123,121,122,121,120,121,122,122,122,121,121,121,120,121,120,123,121,121,121,121,120,121,119,121,119,121,121,121,121,120,120,118,119,121,122,121,120,120,122,125,123,121,121,119,119,120,121,123,122,122,121,120,120,124,121,123,121,120,121,121,121,122,122,123,122,121,121,121,121,122,120,119,120,121,120,119,120,121,120,121,120,121,121,119,119,121,121,123,123,122,122,120,121,124,122,125,122,121,122,122
121,121,119,117,120,121,121,120,119,121,121,123,122,121,122,120,121,122,121,117,118,121,120,120,121,121,121,123,121,121,120,120,121,120,122,122,121,121,122,121,121,123,121,121,122,121,121,119,120,121,121,121,121,121,121,120,120,122,121,123,121,121,121,122,121,122,123,125,124,122,121,119,121,120,120,117,118,121,121,119,120,121,120,121,119,120,121,120,120,122,121,124,123,122,121,121,121,121,122,122,121,121,121,119,120,122,120,122,121,122,122,120,121,121,122,123,122,120,121,120,121,121,122,122,121,121,120,120
120,120,118,117,120,121,122,121,121,121,121,124,121,121,121,120,121,122,123,124,122,122,122,121,120,120,122,122,122,121,121,121,120,121,119,117,119,120,120,120,120,121,122,124,122,121,122,120,120,122,122,123,121,121,121,120,121,121,121,121,120,120,121,119,120,121,121,122,122,121,120,120,121,122,122,121,121,121,121,121,121,121,121,125,121,120,121,120,121,122,121,119,120,121,121,122,119,121,119,121,122,121,120,120,120,122,121,123,122,122,121,119,122,121,122,123,120,121,122,121,121,122,120,124,121,121,121,121
120,119,121,122,122,122,122,120,120,122,121,119,119,120,121,120,121,123,120,121,122,121,121,120,121,122,123,123,122,121,121,122,120,123,120,123,120,121,122,121,120,120,122,121,122,121,121,119,120,122,119,121,120,121,121,121,120,124,122,123,122,121,121,121,119,121,120,121,121,121,122,120,120,121,122,122,121,120,121,119,122,121,122,123,122,120,121,120,120,123,123,126,123,121,121,120,120,121,119,120,120,121,122,120,119,121,113,110,117,121,121,119,120,123,124,127,124,122,121,120,120,122,124,125,123,122,121,120
122,121,121,127,123,121,121,120,121,121,121,113,114,120,121,121,119,121,119,123,123,120,122,120,121,123,122,124,123,121,121,121,121,122,121,122,121,122,121,121,121,121,122,122,121,120,121,121,120,122,123,122,121,120,121,120,120,122,121,124,122,121,120,120,120,121,116,118,120,121,122,120,120,120,122,123,123,121,121,120,121,122,121,122,120,121,120,120,119,122,121,121,123,121,120,121,120,121,122,127,122,122,121,120,120,122,120,116,117,121,122,120,122,120,121,123,124,121,120,121,120,121,120,122,122,122,121,120
120,121,121,123,122,121,122,120,119,121,121,121,120,120,120,119,121,122,120,122,121,121,121,120,121,122,121,122,121,121,122,122,120,121,121,123,121,120,120,120,120,121,120,122,121,121,121,119,119,121,121,123,122,121,122,121,122,122,121,121,120,121,121,121,121,122,121,120,120,121,121,121,121,121,122,122,121,120,121,120,120,121,122,123,121,120,121,120,122,121,122,122,120,121,120,120,120,122,119,120,121,121,121,119,120,122,120,122,121,121,121,120,120,123,122,122,121,120,121,120,120,124,122,125,123,122,122,121
121,122,122,119,118,121,121,119,121,119,118,123,124,121,121,120,119,122,120,118,118,121,120,120,121,122,119,120,121,121,121,122,121,119,122,125,123,122,122,120,120,122,121,122,121,121,121,120,121,121,122,121,121,120,121,121,122,122,123,122,120,120,121,121,119,123,121,124,122,122,122,120,121,121,120,119,121,121,122,121,122,121,122,123,122,121,121,120,120,119,119,117,118,120,121,120,121,121,121,124,122,121,122,120,120,121,122,120,120,122,121,120,121,121,120,122,122,121,121,120,120,122,121,125,121,121,121,121
121,121,120,118,121,121,122,121,121,121,121,125,122,120,121,120,120,122,120,116,118,121,121,120,120,120,121,126,124,121,121,121,119,119,120,119,119,121,122,120,120,122,121,122,121,121,122,120,120,121,121,122,121,121,122,120,120,123,122,124,121,121,121,121,120,121,120,120,121,121,122,120,120,121,121,124,122,121,121,120,120,122,121,121,122,121,121,121,121,120,122,119,116,121,121,120,121,121,121,122,123,120,121,120,120,121,122,124,122,121,121,119,117,123,121,122,121,122,121,120,122,122,120,124,121,120,121,121
121,121,120,121,122,121,122,121,119,122,120,120,120,121,122,120,120,122,122,125,123,120,120,120,120,123,122,118,118,121,120,120,121,120,120,121,122,121,121,120,120,122,121,122,122,121,121,119,119,121,120,119,120,121,121,119,121,123,122,123,121,121,121,120,120,121,122,124,124,121,121,119,120,121,122,122,121,121,121,120,120,121,118,118,118,121,121,120,120,121,119,121,123,121,120,120,121,120,122,123,122,120,121,119,122,122,121,122,121,121,122,121,120,120,122,121,122,121,121,120,121,121,123,122,121,121,120,119
122,121,119,122,122,120,121,121,121,122,122,121,121,120,121,121,120,121,119,119,118,120,121,121,121,121,121,124,122,121,122,120,119,122,124,124,122,122,121,120,120,121,122,123,121,121,121,119,121,121,118,120,121,121,122,120,120,122,121,120,120,121,121,120,120,121,121,124,119,121,121,120,120,122,120,123,123,122,121,120,120,121,122,121,120,120,121,121,122,120,120,122,121,121,121,121,120,121,122,119,119,121,121,119,119,121,117,121,122,121,122,120,120,120,121,123,122,122,121,120,122,121,122,122,121,120,121,121
120,122,122,121,120,121,122,121,119,122,120,123,122,121,122,120,120,121,119,118,121,122,121,120,121,121,121,124,121,120,121,121,121,121,121,119,119,121,122,120,120,121,121,124,123,121,121,120,120,121,121,120,120,121,122,121,121,122,121,121,120,120,121,121,121,123,122,123,123,121,121,120,119,121,121,120,120,121,121,119,121,121,122,122,122,121,122,122,122,122,121,122,121,121,122,121,121,121,121,122,121,121,121,119,120,123,121,122,120,120,121,119,121,122,121,122,120,120,121,120,120,121,122,123,122,121,121,120
121,121,119,119,120,121,121,121,120,123,121,122,121,121,121,120,121,123,121,122,120,121,122,119,121,123,122,121,120,121,122,122,119,120,122,124,121,120,121,120,119,119,121,122,121,122,122,120,120,122,121,121,122,121,121,120,121,120,121,125,122,121,122,121,121,121,120,115,117,120,120,119,120,121,120,123,125,120,121,119,121,124,122,120,118,120,121,121,121,122,120,123,122,120,121,121,121,119,119,120,122,121,122,121,120,121,121,123,122,122,122,120,121,121,120,120,120,120,121,120,121,121,122,121,120,122,121,120
120,121,123,126,123,122,122,121,120,121,120,118,120,121,121,120,119,121,120,121,120,121,121,121,121,122,121,125,123,121,121,120,120,121,120,120,119,120,120,120,120,121,120,122,122,121,122,120,121,121,124,124,122,121,121,120,120,121,120,123,123,122,121,120,118,121,120,119,120,121,122,120,120,121,122,121,120,121,121,120,121,121,121,124,122,121,121,120,121,123,121,122,121,121,121,122,121,122,122,121,121,121,121,121,121,121,121,125,123,121,121,119,120,121,120,115,118,120,121,120,120,121,120,123,122,121,121,120
120,121,122,124,121,121,122,121,120,121,122,122,120,121,121,120,121,122,120,122,122,120,121,120,120,122,122,124,122,121,120,121,121,121,119,121,121,121,122,120,121,121,120,119,119,120,122,120,121,123,123,122,120,121,121,121,120,122,121,124,121,120,121,121,121,122,120,121,122,121,121,120,120,122,123,121,122,121,121,121,120,119,120,125,122,121,122,120,122,122,123,120,122,121,121,121,120,121,119,118,119,120,120,119,120,121,120,122,121,121,120,120,121,122,121,123,122,121,122,121,120,122,121,124,122,121,121,120
122,122,121,120,121,121,122,121,118,121,120,121,121,122,121,119,120,121,121,123,121,122,122,120,119,121,121,125,123,120,121,121,120,123,122,120,118,121,121,120,119,119,121,122,121,120,121,119,121,122,120,121,121,120,121,119,121,121,121,122,122,121,121,120,119,122,124,124,121,122,122,121,120,123,122,122,121,121,121,119,120,121,119,122,121,121,121,121,121,123,122,120,119,121,121,119,120,124,121,124,122,120,121,121,120,120,121,122,122,121,122,121,119,119,118,120,121,121,121,119,122,122,123,124,122,121,121,120
120,122,122,121,122,121,121,119,120,120,119,121,121,121,122,120,121,122,121,123,121,121,121,121,120,123,124,122,120,121,121,120,121,121,120,123,120,120,120,120,120,121,121,120,120,121,122,120,121,120,121,123,121,121,122,120,120,122,120,123,123,122,121,122,120,123,121,122,121,120,121,120,121,120,120,121,121,121,122,121,119,122,121,121,120,121,121,119,121,123,122,124,122,120,120,121,120,121,123,121,121,121,121,121,121,122,118,120,120,120,121,120,120,121,121,123,122,121,121,120,121,122,121,124,121,121,121,120
120,122,121,122,122,121,120,121,119,119,121,121,121,121,121,120,120,121,121,123,122,121,121,118,122,122,122,122,122,121,120,121,121,122,121,123,123,121,121,120,120,121,122,120,119,120,121,120,120,120,118,119,122,120,121,120,120,122,121,121,120,122,121,120,119,120,121,122,123,122,121,121,120,122,122,124,122,121,121,120,121,122,122,121,122,121,121,119,121,122,121,124,122,120,121,121,120,120,121,118,118,121,121,120,120,121,121,123,122,120,121,121,121,122,121,121,121,120,121,120,122,122,121,123,121,120,120,120
120,123,122,122,122,121,122,121,119,122,121,123,121,120,121,121,121,120,121,123,122,122,121,120,120,120,121,124,123,121,122,120,121,121,121,115,117,121,122,121,119,122,121,122,122,121,122,120,121,121,121,125,122,122,122,120,121,122,122,122,123,121,121,120,121,121,120,120,120,120,120,120,121,120,122,122,121,121,121,120,121,122,120,119,120,121,121,119,121,124,124,123,121,121,121,121,120,122,121,125,123,121,121,120,121,121,119,116,118,121,122,120,119,119,121,121,122,121,121,119,122,123,121,123,122,122,121,119
119,121,123,123,121,120,120,120,121,122,121,122,123,122,121,120,120,121,119,119,120,121,121,119,119,121,121,123,119,121,121,120,121,122,122,124,124,121,121,120,120,121,121,122,121,121,121,119,121,121,121,121,121,120,121,119,119,121,122,122,122,122,122,120,120,120,120,122,121,121,122,120,121,122,119,121,121,121,121,121,121,122,122,123,121,121,121,121,120,120,122,122,121,121,122,120,121,122,121,121,121,121,121,120,119,120,119,121,121,121,121,120,120,121,121,121,120,121,121,120,120,122,121,122,123,122,121,119
120,120,120,120,120,121,122,120,120,121,121,124,121,120,121,119,120,121,120,118,119,121,122,120,122,121,121,125,122,121,122,121,121,121,120,123,123,122,121,120,121,121,123,122,122,121,122,121,120,121,118,119,118,121,121,120,121,120,121,120,121,121,122,121,119,119,121,123,121,121,121,119,122,122,121,122,122,121,121,119,119,121,121,123,122,122,121,119,120,121,121,122,121,122,122,121,122,120,120,122,121,121,121,121,119,121,121,122,120,120,121,119,120,122,122,121,122,121,121,119,121,123,121,124,123,122,122,121
120,122,121,122,122,122,121,121,121,122,120,116,113,119,121,120,121,120,120,122,123,121,121,121,119,121,125,124,124,122,122,120,121,122,120,123,122,122,121,121,120,121,118,117,120,121,121,120,119,120,121,123,121,122,121,119,121,123,122,122,121,120,120,119,120,121,121,120,121,121,122,120,120,121,121,122,120,120,120,120,121,122,121,122,122,120,121,120,120,121,121,124,123,121,121,120,120,121,122,121,120,121,122,120,119,122,119,118,119,121,121,120,121,123,121,122,120,121,121,120,121,121,121,123,122,121,121,121
121,121,120,121,121,121,121,121,120,120,121,123,121,121,122,120,122,121,120,119,120,121,122,121,121,121,121,122,121,120,120,120,120,122,122,123,121,121,121,120,121,122,121,121,121,121,121,120,121,122,122,122,122,122,122,121,120,122,122,125,123,122,121,119,120,122,121,117,118,121,121,119,120,122,120,121,120,120,121,120,121,121,121,123,123,121,122,121,122,121,120,123,121,120,120,121,121,120,122,121,120,121,121,119,120,120,120,116,120,121,120,119,119,122,121,127,124,120,121,120,122,123,120,122,121,121,121,121
120,122,120,120,122,121,121,120,121,120,122,123,122,122,122,120,119,121,122,121,120,120,121,121,120,122,120,121,120,121,122,121,121,122,121,125,123,121,120,119,120,121,121,119,120,121,121,119,121,122,121,121,121,120,121,120,120,122,122,122,122,121,121,119,121,122,122,125,123,122,121,120,120,121,120,116,118,120,121,120,120,120,122,124,122,121,122,120,120,122,122,124,122,121,121,121,120,123,120,119,118,121,121,121,120,121,121,123,123,121,121,119,120,123,122,121,121,121,121,120,122,122,123,123,121,120,121,121
119,121,121,123,121,121,121,119,121,121,121,121,121,121,121,120,120,121,121,126,124,121,121,120,121,122,120,119,117,121,120,120,120,122,120,118,119,120,121,120,120,121,121,124,124,121,122,120,120,122,121,121,119,121,122,121,121,122,121,121,121,121,122,120,121,122,122,124,122,120,121,120,121,121,122,123,121,121,121,121,121,121,120,119,119,121,121,118,122,123,122,124,122,120,121,120,120,122,122,121,120,121,121,121,119,120,121,122,121,121,121,120,122,121,121,122,122,122,122,121,121,121,122,122,122,121,122,120
120,121,121,122,121,121,121,119,119,121,119,118,118,120,121,120,119,120,121,121,121,121,122,120,121,122,120,122,122,122,122,121,121,120,121,122,121,121,121,120,120,121,120,123,122,121,120,120,120,122,121,125,123,122,121,119,122,120,122,120,122,121,120,121,120,121,121,119,117,120,120,119,121,121,121,122,121,121,121,120,120,122,122,123,124,121,121,120,121,122,120,121,121,121,122,120,121,123,122,123,121,121,121,120,120,122,120,122,121,121,122,121,120,121,122,122,120,121,122,120,121,121,120,121,120,120,121,121
121,120,121,122,121,121,122,120,119,122,120,121,121,121,121,120,121,122,122,121,121,121,121,120,120,122,121,123,121,121,121,120,121,123,122,123,122,121,122,120,120,120,120,121,121,121,122,121,120,120,121,123,121,120,120,120,121,122,122,125,125,122,121,120,120,121,119,115,115,121,122,120,120,121,121,122,120,120,121,119,120,121,121,122,124,121,121,120,121,122,121,122,121,121,121,121,120,121,122,124,122,122,122,120,121,120,121,121,121,121,121,120,120,122,120,122,121,120,121,120,120,122,120,122,121,121,122,121
120,121,120,121,120,121,121,120,120,122,121,122,121,121,122,121,120,122,122,122,122,122,121,119,122,122,121,123,122,121,122,121,121,121,121,123,122,121,121,121,118,120,120,121,121,121,121,119,120,120,120,117,117,120,121,121,121,121,119,120,122,121,121,121,121,121,123,124,124,121,121,119,120,121,122,125,122,122,121,120,119,123,121,122,121,121,122,120,121,121,121,121,120,120,122,120,122,122,121,121,121,121,121,121,120,121,121,122,122,121,120,119,120,122,121,121,122,120,121,120,121,122,121,123,121,121,120,121
121,122,121,123,122,120,120,121,120,121,121,123,123,122,121,119,120,121,119,117,119,121,122,120,121,122,122,122,118,120,120,120,120,122,119,122,123,122,121,119,119,121,121,120,123,121,121,121,120,122,123,124,122,121,121,119,122,122,122,124,121,121,122,120,121,122,121,123,121,120,121,120,120,120,121,120,122,120,121,120,121,122,122,121,119,121,121,119,120,121,118,118,120,121,122,120,120,122,122,123,120,120,121,120,121,121,121,121,122,121,121,120,120,121,121,123,121,120,121,119,121,122,123,123,121,122,122,121
121,122,120,122,122,122,122,121,121,121,120,122,121,120,120,120,119,121,122,122,121,121,121,121,121,122,122,124,123,121,121,121,121,120,119,118,118,120,121,121,120,120,121,121,120,121,121,120,121,122,121,121,121,121,121,120,119,121,122,122,122,121,121,120,120,120,122,124,122,121,122,120,121,122,121,123,121,120,120,120,120,121,120,123,122,122,122,120,120,120,120,121,122,121,122,121,121,121,120,118,116,119,121,121,120,123,122,124,124,122,122,120,122,121,121,123,122,121,122,121,120,121,120,122,120,121,122,121
121,121,120,122,121,121,122,121,120,121,121,122,121,120,121,120,121,122,122,122,121,121,121,120,119,120,121,122,122,121,121,121,120,122,120,122,122,122,121,120,120,121,120,121,120,121,121,119,120,121,120,121,120,120,120,121,122,121,121,122,122,121,122,120,119,122,122,124,123,122,122,122,121,121,119,120,120,121,122,120,121,121,121,117,119,120,122,120,122,122,120,123,121,121,121,121,120,122,121,124,122,122,121,120,121,120,120,122,121,121,121,120,119,119,119,119,120,121,122,120,121,122,123,123,121,121,121,121
121,122,120,120,121,121,121,121,120,121,121,123,122,121,120,120,120,121,122,122,121,121,120,119,121,122,121,122,122,121,122,121,121,123,121,120,119,120,121,121,119,121,121,122,120,121,122,121,121,121,121,123,122,121,121,119,120,123,122,121,120,120,121,121,122,122,121,123,120,120,121,121,120,121,122,118,119,120,121,120,121,120,121,123,121,121,122,120,120,120,121,124,123,121,121,120,120,123,121,122,122,121,122,121,120,121,120,126,123,120,121,121,121,122,123,119,117,121,121,121,120,120,118,118,121,121,122,119
121,121,120,124,123,122,122,121,120,121,121,122,121,121,122,119,120,121,122,120,122,121,121,119,121,121,121,122,121,121,122,121,121,124,122,123,120,120,121,121,120,122,121,123,123,121,122,121,122,122,121,120,118,120,121,119,121,120,121,120,120,120,120,119,120,122,123,121,121,121,121,121,119,124,120,126,123,121,122,121,121,120,122,116,118,120,122,121,121,121,120,123,122,121,122,121,121,121,122,121,121,122,121,120,120,122,120,122,122,121,121,119,121,123,122,122,119,121,121,120,121,122,122,124,122,121,121,120
120,122,122,121,121,121,121,121,120,119,117,120,122,121,122,120,121,122,123,121,121,121,122,120,121,121,121,123,122,121,121,120,121,121,121,122,121,121,121,120,120,120,121,121,119,120,121,121,119,121,120,122,123,122,121,119,122,121,122,122,121,122,121,120,120,120,121,125,123,121,121,121,119,119,119,117,118,121,122,120,119,120,120,119,120,121,122,120,120,123,122,124,123,122,122,121,120,121,122,123,122,122,121,120,119,121,119,121,121,122,121,119,121,121,122,122,122,122,122,121,121,121,121,122,122,121,122,121
122,122,120,118,117,120,121,121,119,122,121,124,124,121,122,120,121,121,121,122,121,122,121,119,120,121,120,120,120,121,121,121,122,122,120,122,121,121,121,122,121,121,120,122,121,121,121,121,119,121,122,123,122,122,121,118,120,121,120,118,119,121,121,121,119,122,122,123,122,121,122,121,121,122,121,123,120,121,121,120,119,121,121,122,122,121,121,119,120,122,121,123,122,122,121,121,122,121,120,121,121,121,121,122,120,121,121,121,121,121,121,120,120,120,121,121,120,121,121,119,122,121,122,122,120,121,121,121
121,124,120,124,123,121,121,120,121,121,121,122,122,120,121,120,120,120,121,121,116,121,121,119,120,120,120,123,124,122,122,120,121,123,121,122,122,121,121,120,120,122,121,123,122,121,122,120,120,121,121,122,121,121,121,120,119,120,121,122,121,121,121,121,120,122,122,123,122,121,122,121,120,122,121,121,120,120,121,119,120,121,119,121,120,121,121,120,120,120,121,123,122,121,122,120,121,123,122,121,120,121,121,120,119,121,121,123,122,121,122,120,120,122,121,123,122,121,122,120,120,120,121,121,118,120,120,120
120,120,122,124,122,121,121,120,121,122,121,122,122,120,121,120,120,121,121,122,121,121,122,120,121,122,120,123,122,121,120,120,122,122,120,119,120,121,122,121,119,121,121,123,122,121,120,119,119,122,120,119,120,121,122,119,123,121,120,121,121,121,120,121,120,122,122,122,120,120,118,119,121,121,121,121,121,121,125,120,120,120,119,121,121,121,121,120,121,123,121,122,122,122,122,120,122,122,120,124,123,122,121,120,121,121,120,119,118,121,121,121,120,120,120,122,123,120,121,119,120,121,121,121,120,121,122,122
122,122,120,122,122,120,121,120,120,123,122,121,122,121,120,120,122,122,120,124,123,121,122,119,120,121,121,119,119,121,121,119,120,121,123,126,124,122,122,122,120,121,119,118,118,121,121,121,121,120,120,121,123,121,120,120,121,121,122,121,121,121,122,121,121,122,120,123,122,121,121,120,120,121,122,124,121,121,120,119,121,122,121,122,122,121,121,120,120,121,120,122,121,121,121,121,119,121,121,121,121,121,121,121,121,121,119,119,118,120,121,120,120,120,120,123,122,121,121,119,119,121,120,123,122,122,121,120
121,122,120,119,120,121,121,122,120,123,122,123,121,122,122,120,120,120,122,125,124,121,121,120,120,122,120,117,117,120,121,121,120,123,122,124,122,121,121,121,120,122,120,119,120,121,122,120,121,121,121,122,121,120,121,120,119,121,120,123,121,122,122,120,122,121,120,121,121,121,122,122,121,122,122,121,121,121,121,120,120,123,121,122,122,121,121,120,120,120,121,122,120,121,122,120,121,122,122,122,123,121,120,120,121,122,121,121,120,120,121,119,120,121,120,123,122,121,121,120,122,120,120,120,120,121,121,121
119,122,121,123,122,122,122,121,119,121,120,121,120,122,122,119,119,120,122,124,122,121,121,120,122,121,121,121,119,121,122,122,121,122,121,125,123,121,122,120,120,121,121,121,120,121,122,120,120,120,121,122,123,122,121,120,121,123,123,122,121,121,121,121,121,122,122,123,121,121,121,119,119,122,122,124,122,120,121,120,122,122,120,119,118,120,121,119,121,120,119,121,120,121,121,119,121,122,121,123,122,121,120,121,119,120,121,124,122,121,121,119,120,122,123,122,121,121,121,119,121,121,120,119,121,121,120,120
121,124,121,121,120,122,122,121,120,122,121,123,122,121,121,119,119,121,121,123,122,121,122,120,120,120,120,121,121,121,122,121,119,122,121,123,122,122,121,120,121,120,120,121,121,121,121,121,120,121,119,122,120,120,121,119,121,121,122,123,123,121,122,121,121,121,121,120,119,120,121,120,119,120,120,121,119,121,122,120,120,122,122,124,123,120,121,120,120,121,121,123,123,121,121,120,121,122,120,121,119,121,122,122,119,120,121,123,123,122,122,120,121,122,122,121,121,121,121,120,121,122,118,123,122,121,120,120
121,122,121,122,120,121,121,120,121,119,119,122,121,121,122,120,121,123,122,122,121,121,121,120,121,121,121,123,122,121,121,120,120,122,121,123,122,121,121,121,121,122,121,119,119,120,121,120,121,121,120,119,119,121,122,120,121,122,122,126,123,121,121,121,121,122,120,122,121,121,121,121,120,121,119,122,121,121,121,120,119,121,123,123,121,121,121,119,121,121,120,121,122,121,121,121,121,121,120,122,121,121,121,120,119,120,122,122,122,121,122,120,122,121,121,121,119,121,121,121,120,122,120,123,122,122,121,121
121,122,122,122,121,121,121,121,120,122,121,121,120,121,121,121,120,122,121,124,122,121,121,121,120,122,122,119,119,120,121,121,120,122,121,124,123,121,121,120,120,122,121,119,119,120,121,120,121,121,121,123,123,121,120,121,121,123,121,123,122,121,121,122,122,121,119,120,118,120,121,121,120,120,121,123,122,122,122,120,121,120,121,122,121,121,121,120,122,120,121,120,121,121,121,120,121,123,121,122,121,121,122,121,121,121,121,122,121,121,121,121,120,120,120,119,119,121,121,119,120,122,120,122,122,120,121,120
122,122,121,119,119,121,122,122,120,122,123,124,123,121,120,119,120,121,119,120,120,121,122,120,121,123,121,121,122,120,120,121,121,123,123,121,119,120,121,121,120,122,122,123,122,121,121,121,121,120,120,120,121,121,121,120,122,121,120,122,121,121,122,121,121,122,122,122,120,121,121,121,119,121,121,123,122,121,121,120,121,122,122,121,122,121,122,120,120,122,120,120,119,120,121,120,121,122,121,123,121,121,121,120,120,121,122,123,122,122,122,121,120,122,121,124,123,122,122,120,121,121,119,117,119,121,121,121
120,120,121,122,122,121,122,119,120,121,123,124,121,121,121,121,122,121,121,119,121,121,122,120,120,122,119,120,118,121,122,120,120,120,123,125,124,121,121,119,120,122,121,124,122,121,121,120,120,122,122,119,119,120,121,119,120,122,122,123,123,121,121,120,120,120,122,124,122,121,122,120,120,122,119,123,122,121,121,120,121,121,120,117,117,120,122,121,122,121,122,123,123,121,121,120,120,122,120,121,122,122,121,120,121,122,122,121,121,121,121,120,120,121,121,121,120,121,122,120,121,122,122,125,125,121,120,119
121,120,120,117,117,121,121,120,120,120,120,121,121,121,121,120,121,121,121,123,121,121,122,120,122,122,122,123,121,121,121,120,120,123,121,123,121,122,121,121,119,121,121,121,121,121,121,119,120,119,121,123,122,121,121,119,121,122,119,122,121,121,121,121,121,122,123,125,123,120,121,119,121,122,120,115,115,120,121,121,121,122,120,124,122,121,122,121,119,122,122,121,123,121,121,120,121,121,120,124,122,122,121,120,119,122,120,120,122,121,122,120,120,122,123,123,122,121,122,119,121,121,120,122,121,120,121,120
120,123,122,122,119,120,121,121,120,121,121,121,118,120,121,120,121,121,121,122,123,121,121,120,121,122,121,122,121,121,121,120,120,122,122,122,120,121,121,121,121,121,120,120,121,121,121,120,120,122,122,123,122,121,121,120,121,122,120,125,123,120,121,121,122,121,121,116,116,119,120,120,120,120,120,122,121,121,121,120,120,121,123,125,123,121,122,120,121,122,121,122,123,121,121,121,122,122,120,120,119,121,121,120,120,120,118,119,121,120,121,121,121,121,122,125,123,121,121,120,120,121,120,119,120,122,121,120
120,122,120,124,121,121,121,120,120,122,121,121,120,121,122,119,120,121,122,122,121,121,121,120,120,123,121,121,121,122,121,120,121,121,120,122,122,121,122,120,119,121,121,121,120,122,121,120,121,122,121,123,121,120,121,120,120,123,121,124,124,121,122,121,122,122,121,119,118,121,122,121,121,120,119,123,122,121,121,120,121,121,122,122,123,120,121,120,120,121,121,121,119,121,121,121,121,122,119,120,122,120,120,121,120,121,122,123,121,120,121,119,119,121,121,122,122,121,121,120,121,122,121,121,120,121,121,121
121,121,121,125,124,121,121,120,119,121,120,120,121,121,121,120,120,122,118,118,119,121,122,119,119,121,122,122,122,121,121,121,121,122,123,124,122,121,121,121,121,120,120,124,122,121,121,119,120,121,121,121,121,120,121,120,122,121,120,118,117,121,121,120,121,123,123,125,124,122,122,121,120,118,119,119,121,121,121,120,118,120,120,122,119,120,121,119,123,124,122,123,122,120,121,120,120,117,118,122,122,122,122,121,119,125,124,123,122,120,121,120,120,120,119,119,120,121,122,119,122,127,124,123,121,120,121,120
120,112,115,124,121,122,121,121,120,127,124,120,120,121,121,120,121,120,120,123,124,122,122,121,119,120,119,122,122,121,120,120,120,123,121,120,121,121,122,120,121,120,121,122,122,121,120,120,117,116,118,118,119,120,121,118,124,126,123,126,125,120,120,121,123,130,123,118,118,123,123,121,117,117,118,121,121,120,120,119,121,123,124,123,123,121,122,122,123,122,124,124,123,123,122,121,120,116,120,121,121,121,121,121,122,132,125,124,124,122,122,121,121,124,118,120,118,121,121,120,120,118,120,119,119,119,120,119
122,126,120,125,122,121,122,120,116,111,119,119,121,121,120,120,120,136,126,124,123,122,122,120,120,116,118,120,118,120,121,120,122,123,123,124,123,120,121,121,118,121,121,120,119,121,121,120,120,118,120,122,122,122,122,120,120,121,119,122,122,120,121,119,120,122,117,118,120,121,120,120,120,119,119,126,123,120,121,120,122,116,120,117,117,121,122,121,120,130,122,122,122,120,121,120,119,122,120,122,121,122,121,120,119,108,119,122,122,121,122,120,120,125,118,123,121,121,121,119,120,121,124,121,122,122,121,120
120,123,119,123,122,122,121,120,120,114,115,121,121,121,122,121,121,118,122,123,121,120,121,120,119,123,121,118,119,121,121,119,122,125,120,124,120,121,121,122,120,130,120,122,122,122,121,121,119,107,121,120,120,120,121,120,121,121,121,122,121,120,120,121,121,132,123,124,123,122,121,120,121,126,122,122,122,121,120,119,122,119,120,119,118,119,122,120,119,119,121,121,120,120,120,120,122,127,123,123,123,121,121,121,120,105,119,122,120,120,120,120,121,135,125,125,123,122,122,122,122,123,118,121,121,121,121,119
119,124,117,122,121,121,121,121,125,139,139,127,121,119,120,119,117,114,118,118,122,121,122,121,121,130,118,119,119,121,122,120,121,126,119,123,121,121,121,120,120,116,116,124,122,120,121,120,119,125,126,120,120,120,120,119,124,130,122,120,120,121,122,121,116,106,116,123,121,121,121,120,119,112,107,119,120,121,121,119,121,130,131,124,123,121,121,121,123,140,129,122,121,126,123,120,122,125,120,123,123,122,122,122,119,116,118,122,121,121,121,121,122,134,125,121,122,121,121,121,119,119,115,118,120,120,121,120
118,97,114,120,120,120,120,118,127,153,131,124,123,120,122,122,120,111,118,122,121,122,120,119,118,100,118,121,122,124,123,120,124,136,120,121,120,120,122,123,122,126,120,121,120,121,121,120,118,109,112,119,121,120,121,119,123,126,121,120,118,119,117,119,109,98,99,125,126,128,128,120,125,147,147,125,121,115,119,121,120,99,117,120,120,121,122,121,112,132,123,121,122,120,120,118,127,150,128,125,123,122,126,122,120,108,109,123,121,112,113,118,123,138,125,123,122,126,124,120,119,121,109,120,122,125,123,119
122,118,126,123,122,122,121,121,124,136,131,121,122,119,119,121,126,145,130,128,123,125,123,121,120,136,110,114,120,119,119,119,120,119,118,121,121,122,123,122,116,126,119,125,120,118,116,115,122,132,136,124,123,122,120,124,121,127,112,121,122,121,122,120,121,127,125,121,120,127,122,120,113,139,113,120,121,121,122,118,120,165,125,124,122,113,108,118,123,205,125,126,123,132,133,119,125,241,126,123,123,120,120,121,115,241,114,117,119,120,120,118,118,241,119,123,121,115,113,116,126,241,125,123,124,118,120,121
120,154,121,122,121,126,118,117,122,128,116,123,122,117,120,121,119,124,123,121,121,117,119,120,122,122,117,120,120,118,116,119,126,121,121,123,120,118,116,120,116,122,100,119,120,114,109,117,122,122,144,123,121,133,130,120,118,122,113,121,122,117,116,118,122,122,125,122,123,136,129,123,112,121,114,120,118,109,111,117,123,121,125,123,123,122,120,119,111,121,103,121,122,134,129,118,124,122,120,123,121,123,123,122,116,122,122,115,118,109,109,120,119,121,119,123,123,132,136,120,116,121,123,127,124,114,117,120
124,121,115,118,123,117,128,123,121,122,124,121,117,108,110,120,121,121,119,117,119,122,115,117,119,121,124,122,126,152,140,116,118,122,117,123,122,119,119,114,125,122,113,123,122,122,123,133,120,121,132,122,119,109,112,117,118,122,98,117,119,119,120,119,120,121,133,123,122,120,119,122,114,122,121,122,121,114,112,117,127,121,115,123,123,125,123,119,106,122,107,119,120,119,119,116,121,121,137,124,121,120,121,121,115,121,102,118,121,120,116,117,122,122,132,124,121,118,121,119,123,121,113,121,121,122,122,122
123,121,138,129,124,122,122,122,116,121,107,119,120,120,119,119,117,122,123,118,118,118,122,119,124,121,125,128,123,111,112,122,122,121,124,121,123,130,125,121,123,121,123,121,119,120,124,126,116,121,107,122,120,119,112,113,121,121,125,120,120,122,126,124,121,121,123,124,120,114,121,133,128,121,130,125,123,124,133,118,124,121,116,119,120,118,119,131,118,121,134,127,123,119,120,123,123,121,125,121,122,141,135,114,120,121,127,119,117,118,123,123,119,121,99,118,121,118,119,119,119,121,122,121,121,128,125,119
124,121,129,123,123,122,122,120,116,121,111,120,121,118,118,118,122,121,135,120,122,124,123,121,113,121,110,121,122,120,116,119,116,122,112,126,123,115,127,117,117,121,120,116,116,100,109,117,124,120,131,124,120,132,142,123,111,121,104,122,124,126,121,117,125,121,122,123,121,120,124,121,122,122,119,119,119,129,115,122,124,121,119,121,123,116,116,125,118,121,129,123,120,111,121,120,125,121,108,120,119,105,116,121,114,121,110,120,122,141,135,123,121,121,130,124,121,113,115,117,119,121,118,122,122,129,129,120
121,121,115,123,121,114,116,123,121,122,107,118,120,118,117,117,119,122,128,124,122,120,128,121,121,121,131,121,120,115,111,116,113,122,103,120,122,126,127,121,119,121,128,126,123,130,125,119,121,122,128,122,119,119,117,118,113,122,103,121,122,121,120,119,128,122,151,129,121,108,107,119,110,122,110,120,120,121,127,128,120,122,117,122,120,118,116,116,124,121,117,123,121,116,119,120,113,122,112,121,121,122,124,120,120,121,126,117,119,124,122,120,121,121,114,123,123,116,116,116,116,122,109,118,121,132,122,114
119,120,135,123,119,109,114,118,121,121,121,122,121,118,118,119,115,121,107,121,122,124,127,118,128,122,121,120,122,135,129,120,113,121,115,123,122,123,121,121,120,122,126,117,117,110,108,115,119,122,115,123,122,118,123,120,120,121,121,127,123,120,119,119,122,121,99,107,118,120,120,121,115,121,134,130,124,117,121,121,127,121,127,127,124,129,141,125,121,121,128,123,122,115,113,121,119,122,118,120,120,120,119,120,127,121,131,124,122,116,119,129,120,120,109,119,119,113,117,117,118,121,121,119,117,114,112,119
122,121,113,121,122,132,127,118,123,121,126,126,125,119,121,122,121,122,120,121,119,119,120,120,119,121,127,123,122,111,112,119,120,121,118,124,124,121,122,119,111,122,111,118,118,114,127,119,126,120,124,125,123,125,121,122,116,121,112,123,122,120,120,119,125,121,128,123,121,122,122,122,112,122,116,123,122,121,121,118,125,121,129,124,123,122,130,125,118,121,129,120,120,122,122,117,121,122,111,119,118,114,111,118,118,121,123,123,125,135,131,127,121,122,118,123,122,119,119,117,122,122,122,123,122,124,123,119
116,122,120,116,118,121,123,123,121,121,130,122,121,121,120,119,123,121,117,121,124,149,139,115,122,122,129,128,124,121,115,129,116,121,122,123,121,115,113,117,119,121,111,117,120,118,119,121,117,121,113,121,123,133,130,122,122,121,129,124,123,139,131,121,116,121,113,119,119,115,115,118,118,121,122,124,123,124,125,121,121,121,118,122,121,119,120,120,121,121,127,120,120,114,116,120,121,122,117,125,124,120,123,120,120,121,120,122,119,112,124,122,120,121,122,123,120,115,113,116,122,121,125,122,122,125,122,118
117,122,118,121,122,124,119,119,120,121,100,120,122,121,119,118,128,121,145,121,119,120,121,122,115,121,105,121,122,121,120,117,124,122,130,123,121,126,127,123,114,121,110,118,121,116,115,120,127,121,142,126,119,117,115,117,115,122,96,118,120,118,120,122,131,121,144,123,123,116,115,122,118,122,106,121,123,123,122,120,123,121,128,126,123,123,120,116,121,121,112,121,122,121,122,121,120,121,125,120,121,115,120,122,121,121,124,122,128,180,166,119,118,121,108,117,116,115,113,119,112,121,119,122,122,115,115,114
128,121,130,123,121,119,120,123,116,122,117,119,121,121,120,119,120,122,122,121,120,114,119,118,123,121,104,121,124,134,135,119,115,121,125,125,121,116,116,120,129,121,140,125,123,120,120,122,118,121,105,119,120,121,120,119,117,122,112,114,116,104,113,120,124,121,121,127,122,118,121,120,121,121,123,121,119,120,126,121,116,121,126,122,122,119,119,118,129,122,138,126,125,123,123,123,109,121,101,116,120,121,118,117,119,121,121,123,121,111,109,117,121,122,123,122,121,111,110,121,120,122,126,120,122,143,134,119
123,121,120,123,120,117,117,120,128,121,130,123,122,113,118,126,122,121,137,123,121,123,123,117,113,121,110,120,120,112,113,113,125,120,129,125,125,128,128,122,120,121,116,124,122,120,119,119,114,122,111,117,119,119,118,117,120,121,117,117,119,120,119,121,126,121,124,125,121,119,122,121,114,122,122,124,121,123,121,122,115,122,114,121,122,128,119,114,127,121,131,128,125,125,130,126,122,121,126,117,118,107,108,119,125,121,108,121,123,127,133,127,102,121,124,124,124,119,120,120,126,121,129,123,122,120,122,122
120,122,118,118,120,119,119,119,114,121,99,115,115,115,117,118,126,121,124,123,125,152,144,120,117,121,123,122,120,105,110,107,130,121,130,123,120,124,124,130,119,121,131,123,122,116,110,114,120,122,114,121,120,120,122,120,124,121,125,123,122,120,123,121,122,122,121,118,117,119,121,118,121,121,124,121,122,121,117,118,125,121,125,124,122,115,120,121,117,120,104,121,122,118,115,119,121,122,126,120,117,104,110,116,117,121,119,119,119,113,116,118,125,121,131,120,120,126,122,122,121,121,105,123,123,120,121,125
121,122,121,123,121,119,120,120,118,121,115,121,120,120,120,118,125,121,147,129,124,123,124,123,118,122,101,116,119,120,121,119,123,121,139,125,121,122,121,121,119,121,120,119,117,117,119,119,110,122,110,123,122,116,123,119,125,121,134,123,120,109,107,128,128,122,118,116,119,123,129,119,120,121,112,123,122,117,119,123,118,121,132,121,121,127,120,114,124,121,106,120,121,120,114,116,120,122,135,124,122,121,120,120,122,120,109,123,123,121,122,121,123,121,115,114,115,113,117,119,115,122,104,116,118,120,121,116
116,122,130,126,122,109,114,116,121,121,124,119,118,112,113,123,119,122,123,124,124,119,118,119,128,121,124,123,121,124,127,122,120,122,121,121,120,118,121,119,123,121,122,121,121,119,120,121,123,121,120,121,121,121,120,121,116,121,124,123,122,122,122,119,125,121,126,120,121,115,118,121,126,121,121,126,123,121,121,122,116,121,117,122,120,118,119,118,121,122,104,119,120,119,122,119,122,121,148,126,123,125,122,121,115,121,109,121,121,118,119,122,121,122,117,121,120,121,118,118,127,120,126,123,123,122,122,123
118,121,130,117,117,117,115,119,120,121,108,122,123,119,120,119,122,122,130,123,122,121,122,121,115,122,126,120,119,111,114,118,117,122,115,124,122,119,122,118,125,122,119,119,119,123,132,131,110,122,121,122,121,121,119,118,123,121,125,123,122,117,118,118,119,121,108,117,119,118,118,119,115,121,104,117,118,112,113,118,121,121,129,124,121,117,115,118,120,122,127,123,123,127,127,120,117,121,115,121,120,118,119,120,129,122,117,122,122,122,122,124,119,121,131,121,119,110,111,117,125,122,134,123,120,128,130,120
120,122,117,123,123,115,116,119,117,122,126,117,116,113,118,119,123,121,131,125,123,122,119,118,124,99,114,121,122,120,122,121,121,100,130,121,120,112,112,122,120,146,126,123,125,133,130,123,115,129,117,123,120,133,131,121,117,122,109,117,119,112,111,116,128,122,130,124,122,119,119,121,125,121,128,118,118,119,121,122,120,106,118,123,123,122,122,120,125,127,130,123,121,121,122,121,120,131,115,121,121,120,118,119,129,122,129,124,122,123,124,120,112,122,101,121,122,117,117,121,118,121,133,121,119,114,119,121
128,121,117,121,119,114,118,120,120,122,114,121,119,118,119,120,121,122,122,120,120,117,114,118,123,79,142,127,124,122,122,125,119,119,110,120,120,122,121,119,122,135,132,125,121,120,125,125,120,155,117,122,121,118,114,116,124,126,113,119,121,113,116,118,119,122,130,125,123,130,129,121,124,121,124,121,118,109,109,121,118,122,117,121,122,117,119,120,116,121,111,123,122,120,120,117,117,106,119,118,119,120,121,120,122,134,119,121,119,121,122,121,113,125,122,121,122,126,124,118,122,122,127,123,122,126,123,121
131,122,131,124,123,119,121,120,118,121,106,120,120,129,125,128,121,121,138,122,121,118,118,117,120,122,118,121,121,115,115,119,121,121,116,123,122,119,117,119,121,121,125,124,122,119,128,121,122,122,111,119,119,120,120,125,117,122,116,120,121,120,120,118,121,121,121,125,123,123,126,120,123,122,122,122,120,116,113,119,124,121,144,124,121,117,122,119,121,121,105,123,124,120,118,122,119,121,112,119,118,118,120,120,126,121,130,122,123,136,135,120,130,121,150,130,124,126,120,124,121,121,110,119,121,118,119,117
120,122,108,119,119,116,116,120,113,122,116,120,119,113,118,115,118,122,123,124,123,136,125,123,116,122,116,120,119,114,117,120,116,122,116,119,120,120,115,118,123,121,112,122,122,115,122,119,117,122,128,121,119,123,121,120,121,107,119,122,121,121,122,119,121,93,122,122,119,117,115,118,113,83,120,121,122,120,123,119,121,111,125,120,119,115,117,120,115,141,113,123,120,99,98,114,123,155,127,123,123,129,135,128,115,156,96,117,119,112,114,117,121,121,138,125,120,122,122,120,119,117,115,123,123,120,122,120
126,133,115,119,119,119,120,121,118,126,128,125,122,122,122,121,117,124,116,122,122,120,120,119,121,121,114,118,119,121,121,120,117,122,106,119,119,124,120,116,117,121,124,122,121,115,121,113,123,121,139,125,120,100,104,125,129,122,125,121,123,136,139,121,125,115,142,125,122,116,117,121,115,97,114,122,122,119,120,121,122,97,113,122,122,121,122,121,125,135,124,118,118,114,114,121,124,151,127,122,121,126,120,119,114,139,134,128,126,123,120,119,117,124,106,114,114,115,116,117,123,121,134,125,123,120,120,121
124,122,119,123,123,118,119,122,123,121,125,120,119,117,116,117,121,121,123,124,122,130,132,121,119,121,138,122,120,116,119,114,124,121,108,123,123,120,120,121,117,122,122,121,120,118,118,117,129,121,128,119,121,136,135,130,120,108,107,121,122,126,122,117,118,136,130,124,122,113,115,119,115,123,130,123,122,126,136,125,119,121,108,117,117,111,115,118,122,122,131,125,125,141,132,123,122,120,116,119,119,116,114,118,121,121,133,126,123,125,129,123,122,121,126,119,119,116,115,120,116,121,111,122,122,119,118,118
119,122,111,119,119,119,121,120,119,122,129,124,122,120,120,119,128,121,140,127,123,120,120,123,115,121,122,120,118,118,128,119,125,121,128,120,120,117,118,119,120,121,118,126,121,103,106,119,120,122,123,122,126,162,151,124,117,121,127,123,121,121,120,119,122,121,113,121,120,115,117,118,116,121,132,123,121,117,119,119,123,122,116,120,120,120,122,122,121,121,121,123,121,126,122,115,122,122,113,120,121,119,118,120,122,122,121,120,118,118,120,122,122,121,118,121,121,120,119,119,123,121,109,121,120,118,118,118
117,121,135,123,122,126,121,119,119,121,104,121,120,119,130,121,123,121,141,125,119,110,113,119,119,122,123,117,119,112,113,120,125,120,121,124,124,125,127,122,123,121,137,124,123,127,127,123,116,121,113,116,114,110,109,113,119,121,114,121,119,115,118,122,119,122,112,116,119,118,119,115,119,121,116,122,123,143,131,121,122,121,125,123,121,114,114,117,116,119,108,120,121,118,117,119,126,127,122,120,121,119,118,119,107,122,112,124,123,118,121,117,121,122,121,122,123,132,124,121,119,121,114,118,119,120,126,118
126,68,132,127,124,112,113,122,116,129,111,118,118,119,117,119,113,106,131,122,116,113,120,113,128,107,121,124,125,137,134,128,122,115,117,121,119,113,112,128,114,147,111,122,122,113,113,116,121,138,138,121,122,123,126,118,125,99,132,125,121,116,122,125,115,175,117,124,122,120,121,120,127,135,119,122,120,123,123,121,116,123,108,120,121,118,117,116,129,121,147,121,120,126,130,125,116,122,126,125,121,117,116,117,120,121,108,120,121,121,121,122,124,121,120,121,121,120,120,120,119,97,107,120,121,116,116,119
122,113,131,123,123,145,134,120,123,109,126,122,121,121,119,121,119,97,120,123,123,135,130,127,116,61,118,119,120,110,123,121,126,91,114,123,122,121,121,120,116,145,128,123,119,111,113,114,118,111,118,122,121,118,123,128,125,47,121,124,124,121,123,123,119,115,108,118,115,110,115,119,127,110,129,126,130,155,140,123,119,145,115,122,124,120,122,120,127,203,137,122,120,119,121,121,111,148,103,118,118,118,120,117,125,180,138,124,123,117,115,120,120,133,115,120,122,132,132,120,120,124,119,123,121,115,113,120
127,122,120,120,121,126,126,123,119,108,115,121,121,119,118,118,116,97,121,121,122,119,120,122,119,145,121,121,121,122,121,119,117,146,115,122,121,124,122,118,127,125,131,120,118,113,115,122,123,122,136,124,124,130,127,122,121,122,127,123,121,120,118,119,118,73,118,119,120,114,118,120,115,108,101,118,119,120,121,118,122,116,135,124,121,116,117,119,115,124,101,117,123,122,120,118,131,139,127,123,122,121,122,123,125,134,126,123,122,122,123,122,118,124,113,117,117,125,124,119,118,121,132,124,123,115,114,113
117,122,109,120,124,123,123,124,119,122,128,123,120,117,119,120,114,122,109,119,118,118,122,120,132,90,137,123,123,117,117,121,121,118,111,120,119,118,119,119,117,72,126,123,122,124,122,120,118,110,127,123,122,129,129,121,117,116,113,118,120,118,117,116,120,90,116,122,121,119,131,121,120,146,110,117,118,118,115,116,124,110,110,121,123,114,118,126,120,230,114,121,122,133,129,119,122,149,127,122,121,117,119,120,124,126,118,122,120,122,119,119,115,122,124,121,122,116,121,121,122,123,107,120,118,126,129,121
129,128,117,121,120,120,120,123,109,123,134,122,122,120,120,119,123,122,114,118,119,120,121,120,119,121,125,123,122,121,122,119,115,121,118,122,121,121,120,119,123,122,120,122,120,124,126,119,124,121,117,121,123,118,119,121,119,121,127,123,123,140,132,119,122,121,113,123,119,108,105,113,118,122,123,117,121,127,130,131,125,65,127,123,119,115,109,115,113,49,120,124,124,122,125,118,119,63,117,119,120,122,121,123,121,227,113,123,121,121,121,119,123,144,131,122,123,120,121,120,125,143,129,121,119,123,125,122
119,128,110,118,121,114,116,119,123,86,135,124,120,120,123,123,124,120,117,120,121,114,113,118,113,99,103,119,119,121,117,117,118,110,125,125,123,127,127,121,117,140,132,121,123,120,118,119,125,158,105,116,117,120,121,123,117,103,131,126,125,121,120,120,119,87,116,123,123,131,135,120,124,111,129,124,125,124,117,117,121,184,117,121,118,110,115,116,117,158,114,121,122,122,122,122,125,144,129,124,119,115,119,119,117,141,109,121,122,117,118,118,130,65,123,121,121,121,121,121,110,21,130,124,122,123,122,119
126,178,122,121,120,118,119,119,124,121,109,121,122,124,125,122,121,127,126,122,121,116,115,119,120,115,129,124,124,124,129,122,120,141,121,119,118,125,124,125,118,124,104,122,122,118,118,120,124,72,148,121,120,119,121,121,116,115,104,123,124,140,130,120,122,156,127,121,120,119,119,119,111,133,114,120,119,117,119,120,120,133,116,124,121,117,118,119,117,116,116,118,121,132,122,119,118,122,126,122,119,117,124,120,116,108,118,119,123,137,129,122,124,150,123,120,120,116,117,119,114,117,122,124,122,120,120,118
115,124,119,122,121,119,118,119,123,121,120,122,121,123,123,122,121,121,126,121,120,119,119,115,118,121,106,121,120,118,119,121,116,62,123,120,121,121,122,120,128,160,132,123,118,113,117,122,116,128,124,121,120,118,119,117,122,122,123,121,123,130,127,122,117,121,118,121,120,117,118,118,130,100,124,123,122,118,119,123,113,46,123,122,123,126,125,120,125,29,116,119,118,118,120,120,113,27,130,125,122,121,121,119,121,203,117,123,122,121,121,126,122,211,120,120,120,120,119,119,117,152,109,120,122,125,123,119
119,109,114,121,120,123,119,118,121,160,129,126,126,144,135,118,124,164,117,120,121,118,120,124,121,137,124,118,117,116,117,116,118,124,124,121,122,120,121,120,125,122,118,123,121,118,120,120,127,121,125,123,121,120,121,120,118,111,115,125,123,130,130,122,119,82,120,117,120,119,119,119,126,47,119,123,120,119,120,121,118,28,134,123,124,127,123,123,125,23,117,120,121,120,120,119,117,0,117,122,124,123,122,121,124,192,123,126,123,123,122,122,122,227,129,122,123,127,123,120,124,242,110,120,120,117,119,120
119,240,131,124,123,123,126,122,124,157,120,122,119,122,117,120,125,127,122,123,123,121,122,121,119,123,127,120,118,111,115,118,123,121,121,121,122,123,123,122,112,87,118,123,122,122,122,120,125,0,119,123,123,120,121,120,121,14,129,120,118,119,119,117,120,135,129,120,119,118,119,119,121,180,120,128,125,122,124,123,118,233,111,118,119,131,122,117,120,192,109,119,122,129,125,119,126,135,122,125,121,113,116,121,120,66,108,118,120,121,131,123,116,54,117,122,122,125,117,116,119,75,118,122,120,119,118,118
116,103,128,122,119,116,116,118,121,171,114,120,121,121,120,119,119,170,119,121,121,121,122,119,117,154,129,122,121,121,121,120,122,93,118,121,122,122,122,121,115,141,124,122,121,120,121,120,124,143,106,119,120,117,118,124,127,124,147,129,125,123,121,123,117,122,115,121,121,129,129,118,123,85,117,123,123,121,122,123,119,59,117,122,121,119,119,118,121,1,125,118,117,121,122,121,115,64,119,124,121,116,119,119,128,139,121,125,125,122,115,118,116,161,137,123,122,118,123,119,130,168,136,121,119,119,120,121
113,150,103,122,124,124,124,122,121,136,121,123,121,116,119,121,118,128,121,119,119,119,120,120,115,121,110,118,120,121,120,116,125,87,118,121,120,120,120,120,110,140,127,122,122,122,121,118,121,182,119,119,118,119,120,121,117,167,119,121,122,122,122,119,122,132,119,121,121,121,121,119,117,105,115,120,119,114,116,119,120,137,109,119,122,130,126,121,115,76,123,125,121,115,118,119,123,87,116,118,119,126,125,120,117,95,135,127,122,118,113,117,119,115,119,122,120,119,119,118,120,77,118,119,121,112,112,117
120,31,124,125,122,124,126,124,118,0,121,122,122,119,118,118,118,0,133,124,122,114,114,126,116,0,124,121,122,129,130,116,128,97,132,124,123,120,119,121,117,234,121,123,123,123,122,121,123,241,112,117,117,119,120,118,125,241,121,123,122,119,121,121,121,129,117,119,122,131,126,121,120,127,135,122,119,114,116,118,122,104,118,122,122,122,122,120,118,121,109,118,120,127,123,118,121,42,127,123,121,121,121,120,117,90,115,120,121,120,121,120,120,100,117,119,122,123,118,119,122,123,121,121,119,120,120,120
118,103,114,120,122,118,120,121,116,62,136,125,123,134,124,123,123,87,104,116,120,126,129,121,121,0,120,121,120,115,119,119,122,0,128,123,120,119,120,121,123,0,122,116,118,118,119,120,111,0,122,122,121,118,117,117,125,0,123,123,122,121,118,118,116,0,124,122,121,121,121,121,123,0,119,121,120,120,120,120,120,0,116,121,122,122,122,120,119,22,130,124,122,121,122,122,118,63,121,118,117,119,118,119,123,86,115,121,123,123,122,118,121,101,125,123,123,118,120,121,119,108,111,119,120,116,118,119
121,113,122,121,121,124,125,118,126,116,125,122,121,122,122,125,117,117,121,119,118,115,115,116,124,119,131,123,121,120,122,125,118,118,118,125,124,145,133,119,125,118,112,119,119,116,119,122,114,120,132,124,121,118,118,116,122,120,113,122,123,136,129,121,123,120,121,122,120,118,119,120,124,120,120,124,123,119,119,120,128,120,132,121,121,123,123,123,112,120,105,123,122,122,120,119,122,120,134,121,119,119,117,120,116,171,118,121,122,124,124,120,122,211,123,123,120,112,118,121,121,191,117,125,125,138,143,129
126,206,134,122,120,117,118,120,110,207,106,120,120,113,115,119,119,207,122,122,122,123,121,119,121,153,117,121,121,121,121,120,121,141,123,123,121,117,118,120,122,214,108,122,123,126,122,117,121,207,136,124,122,117,121,123,122,190,114,120,120,130,129,119,118,146,122,121,120,122,118,117,121,130,113,121,123,117,118,119,121,141,128,120,117,116,122,119,113,60,102,118,120,120,119,121,120,131,108,120,121,121,121,119,119,209,135,126,123,121,121,120,123,241,104,119,120,121,121,118,116,204,123,125,123,115,118,126
119,241,115,123,122,129,128,117,122,222,105,120,123,120,122,121,122,218,142,125,119,114,118,122,121,165,111,119,123,138,128,120,113,154,120,121,119,115,118,118,123,175,115,121,120,118,119,120,119,178,111,121,121,116,118,119,123,126,125,121,120,124,125,119,122,58,120,123,122,118,117,120,123,94,123,122,121,118,120,118,121,73,114,121,120,119,119,123,114,100,122,125,125,124,123,122,119,115,113,118,119,118,118,117,126,142,144,124,120,121,121,120,118,70,117,121,122,121,120,118,122,65,118,123,122,121,122,120
120,68,130,124,121,120,121,119,120,70,115,121,120,119,120,122,119,163,115,117,119,125,123,119,115,195,121,122,122,119,121,120,122,193,114,121,121,120,119,119,116,210,108,116,117,112,115,119,125,127,124,124,121,138,135,121,118,24,122,121,120,121,118,119,121,8,133,125,121,123,125,119,121,87,113,121,121,118,117,122,118,136,117,122,121,120,120,118,125,88,134,122,122,122,122,120,120,129,119,120,122,123,121,118,118,124,116,121,121,116,117,115,123,154,115,121,121,122,131,134,112,144,119,124,122,130,123,116
115,146,121,123,121,118,119,120,125,223,111,121,122,120,120,121,119,161,120,120,120,121,120,121,118,176,114,120,120,120,121,121,118,203,121,124,124,123,121,120,118,229,117,122,122,122,122,122,115,178,117,118,117,120,120,120,119,116,111,122,123,120,120,118,125,72,135,123,122,122,121,121,118,76,124,120,119,119,120,119,119,0,115,122,122,121,121,120,122,0,133,122,121,120,121,119,114,0,112,121,120,120,120,119,123,0,135,123,122,121,121,120,116,0,116,122,122,121,122,119,122,17,124,120,117,119,119,119
116,97,123,121,122,121,121,118,121,211,120,124,123,121,121,120,118,241,114,124,121,116,118,118,110,241,110,119,122,129,126,120,125,242,128,121,120,122,120,119,118,241,117,123,123,129,126,119,126,240,119,118,118,114,118,122,123,242,121,124,121,122,130,123,118,119,117,120,121,118,118,119,123,87,116,120,120,121,121,122,123,114,126,121,120,121,124,120,115,96,115,121,122,121,122,117,118,67,112,120,119,118,119,117,116,89,125,123,121,119,119,117,122,106,119,120,121,122,123,117,123,86,130,126,124,121,124,124
121,155,114,121,121,118,118,119,118,176,111,120,121,131,129,121,118,143,108,120,119,118,119,119,122,106,138,125,121,121,121,120,122,68,112,118,120,120,120,122,130,137,129,125,123,120,122,122,112,114,113,117,118,120,118,118,119,80,128,122,121,119,120,119,121,0,115,121,120,119,118,118,116,0,133,121,120,120,121,121,125,0,123,123,123,123,122,120,114,0,116,122,122,120,122,120,128,0,118,121,122,120,121,121,116,0,128,124,121,119,122,128,124,0,129,121,122,119,115,118,118,0,121,121,120,121,132,121
122,43,125,119,120,120,120,121,119,76,115,121,121,121,120,120,117,95,108,119,120,120,119,119,125,106,125,122,121,122,127,121,112,112,121,121,121,121,120,118,125,115,124,122,121,121,122,122,120,118,115,120,121,121,120,120,121,119,126,121,121,124,124,118,117,119,114,122,121,118,119,120,123,119,109,120,120,119,120,118,116,120,135,122,119,119,119,117,118,120,105,120,121,121,121,119,121,159,133,122,121,121,121,120,119,230,127,123,121,120,120,119,122,239,114,120,121,122,123,122,119,237,114,122,122,121,119,118
123,160,123,125,124,124,124,123,124,241,122,123,122,119,119,118,117,241,107,120,121,119,121,123,122,241,121,122,118,113,116,118,114,242,112,117,118,129,125,119,118,218,119,123,123,121,121,119,120,230,120,123,122,115,112,119,112,176,113,120,122,121,124,115,124,137,129,123,122,123,119,117,125,177,125,118,119,119,119,121,119,107,119,122,121,122,121,120,121,118,115,121,121,119,121,120,119,154,125,123,121,122,121,120,121,214,116,121,121,119,119,121,117,214,118,121,121,128,125,120,122,204,108,119,120,118,117,118
120,157,117,121,121,120,122,120,124,175,122,121,120,121,118,119,118,148,112,123,123,121,123,123,117,91,115,120,120,117,118,117,121,81,127,121,121,119,120,119,116,69,118,121,120,124,125,127,124,120,120,122,123,121,122,114,123,141,116,122,121,118,120,128,118,147,112,116,119,127,123,118,125,154,127,124,122,121,122,120,110,127,114,122,120,122,119,118,117,91,119,123,122,127,124,119,122,75,118,119,120,119,119,119,119,121,126,120,119,117,119,120,121,90,112,122,123,122,122,121,119,153,119,120,121,116,118,119
119,126,126,120,121,132,127,115,122,128,116,121,121,119,119,120,119,134,119,121,122,120,120,118,119,105,124,119,120,121,121,121,117,56,126,124,121,118,117,117,120,105,122,117,120,125,127,120,122,187,120,124,121,119,119,119,120,132,112,124,124,119,119,121,118,133,122,123,122,123,118,120,123,127,122,122,122,130,126,122,118,125,120,121,120,119,119,118,121,103,118,120,121,120,121,120,123,131,121,123,120,121,122,120,119,150,121,120,120,121,121,120,121,145,124,123,121,120,120,120,117,99,118,123,123,124,124,122
124,91,120,122,121,121,122,120,121,167,119,121,121,121,122,126,119,114,120,124,122,125,125,121,118,149,113,122,121,119,120,118,118,121,112,120,121,120,119,119,118,136,115,121,121,118,118,119,124,141,121,123,122,128,126,117,125,76,123,120,121,122,124,131,117,107,108,121,120,118,117,117,124,146,117,120,121,114,116,119,115,152,119,122,123,137,129,117,127,155,133,121,119,117,121,122,118,103,123,124,120,120,120,119,131,134,113,121,124,123,123,120,101,104,123,125,123,121,121,121,123,103,110,118,119,117,117,116
120,103,133,124,123,125,123,122,122,126,125,125,121,119,121,120,118,94,116,119,119,115,116,119,117,89,117,122,122,124,123,119,123,124,123,120,120,127,126,121,112,135,122,125,122,119,117,120,125,125,119,120,122,120,128,123,124,85,127,121,119,130,126,120,121,80,129,123,123,119,118,120,120,105,124,122,121,120,118,118,116,110,111,123,121,120,122,126,122,123,121,121,121,120,121,119,122,97,119,119,119,117,119,119,121,116,119,120,121,122,121,120,117,113,125,123,122,121,122,120,125,120,116,122,122,121,121,122
115,109,131,124,122,122,121,119,121,161,120,121,121,121,120,121,123,164,119,122,121,121,123,119,114,135,110,120,120,126,123,120,123,112,132,122,121,117,118,118,119,124,122,122,121,121,122,121,125,76,122,122,121,118,119,121,120,102,116,119,119,119,120,118,123,107,127,125,122,122,122,123,122,157,121,121,122,121,121,120,123,162,114,120,121,119,120,120,115,151,140,124,121,119,120,118,121,142,111,122,122,120,121,120,121,145,120,123,122,121,121,120,122,187,117,117,120,120,121,120,121,132,123,122,121,120,118,119
119,92,125,124,122,123,124,119,119,74,122,123,122,120,121,121,123,129,127,121,120,111,117,118,122,122,123,119,121,150,148,123,115,125,106,120,122,115,116,114,125,134,128,124,122,120,120,131,114,148,126,120,119,119,119,115,122,118,111,121,121,122,122,120,118,95,123,122,120,121,121,119,118,116,115,121,120,121,120,121,123,100,131,123,123,123,123,122,124,90,123,124,123,122,123,122,117,88,114,118,120,121,121,119,120,108,113,120,119,120,121,120,123,139,117,122,122,119,121,120,125,153,127,122,122,123,122,121
