122,123,122,122,121,121,121,121,120,122,121,121,121,121,121,121,118,120,120,122,121,121,122,120,123,121,122,123,121,121,118,120,120,121,120,121,120,121,122,120,120,122,121,122,121,120,120,119,119,121,121,122,121,127,126,121,120,121,121,121,121,120,121,118,120,121,121,121,121,123,121,121,121,121,121,122,122,121,121,120,118,121,121,122,121,121,121,120,120,121,121,121,121,120,121,118,121,122,121,121,120,120,120,120,122,123,122,122,121,121,122,121,120,121,121,122,121,121,123,121,121,122,120,121,121,121,121,121
118,120,121,122,121,122,121,119,121,122,121,122,122,122,121,121,121,121,120,122,121,118,122,121,122,123,121,121,121,121,122,121,120,120,121,121,121,121,121,120,121,121,120,122,121,122,123,121,119,120,121,122,121,122,121,120,120,121,121,122,122,121,122,120,121,121,121,122,122,122,124,121,121,121,122,122,120,119,118,121,119,122,122,123,122,122,123,121,120,121,121,121,121,120,121,119,121,120,120,121,121,121,121,120,121,121,121,122,121,124,124,122,120,120,121,122,121,120,118,121,121,122,120,122,121,122,122,121
121,122,121,122,122,120,122,120,122,121,120,121,121,122,122,121,119,121,121,122,121,122,122,120,120,122,121,121,120,121,120,120,120,121,120,122,121,121,121,120,121,120,120,121,121,121,120,120,121,121,120,121,121,121,123,121,122,122,121,122,122,120,119,120,119,121,121,122,122,121,121,120,120,121,120,121,120,120,122,119,122,122,121,122,121,121,121,121,119,122,121,121,120,120,120,120,120,121,121,122,121,120,120,120,122,123,121,122,121,120,120,122,121,122,121,123,121,122,120,121,120,121,121,122,122,120,120,120
120,121,121,121,121,122,122,120,120,121,120,121,121,120,117,120,121,122,121,122,122,121,125,121,121,122,121,122,121,123,126,121,119,121,121,122,121,121,119,117,122,121,122,122,122,121,120,123,120,121,121,122,121,120,120,120,121,122,120,121,121,121,122,121,120,121,121,122,122,121,121,119,120,122,121,122,121,120,120,120,120,121,121,121,121,121,121,119,121,121,122,122,122,121,121,122,122,123,121,122,121,121,122,121,118,121,121,122,121,121,123,119,123,121,120,122,122,122,119,121,120,122,122,121,121,121,121,120
123,123,121,122,121,121,123,121,121,122,121,122,121,120,119,120,119,120,121,122,122,121,121,119,120,121,121,121,120,119,121,119,121,122,122,122,121,120,118,119,122,121,120,122,121,121,122,122,119,121,121,122,122,120,120,119,121,121,121,122,121,121,121,120,121,122,121,122,121,121,121,121,120,121,121,122,122,123,121,119,120,121,121,121,121,121,121,120,122,122,121,121,120,121,120,120,119,121,121,122,121,121,120,120,120,121,121,122,121,121,121,120,121,121,121,122,121,120,120,119,121,122,122,122,121,121,122,121
120,121,121,122,122,122,121,120,120,122,121,122,122,122,124,121,119,121,122,122,121,121,122,120,121,122,120,121,120,121,121,121,122,122,121,121,120,121,121,120,121,120,120,121,121,121,122,119,120,122,121,122,122,121,121,120,121,122,122,121,120,121,123,121,120,122,120,121,121,121,122,120,122,122,121,121,121,122,125,120,121,122,121,123,122,120,118,120,119,121,121,122,122,124,128,121,121,122,121,121,120,121,121,121,122,123,122,122,121,120,119,120,121,121,121,121,121,120,120,120,121,122,121,121,121,123,121,122
120,122,121,122,121,121,124,120,122,122,121,121,120,120,120,120,120,121,120,121,121,121,121,120,120,122,121,121,120,121,121,120,122,122,121,122,121,121,121,122,121,123,120,121,120,121,122,121,120,121,121,122,122,121,119,120,122,123,122,122,121,121,122,122,119,121,121,122,120,120,121,120,121,122,121,121,121,122,123,119,121,122,121,122,120,120,113,121,121,121,121,122,121,118,123,121,120,120,121,122,121,123,123,121,121,121,121,122,122,122,124,120,121,122,120,122,121,120,122,121,120,122,121,121,121,119,119,120
121,121,120,121,121,120,121,120,121,120,120,121,120,119,122,121,120,121,121,122,122,121,122,120,120,122,121,122,121,120,121,120,120,122,121,121,120,121,121,120,122,121,120,121,121,121,121,121,120,122,122,122,121,121,121,120,121,121,120,121,121,121,121,121,120,122,121,122,122,122,122,121,120,121,121,122,122,120,123,121,121,122,122,122,122,120,117,120,119,120,121,122,121,121,122,119,121,121,121,122,121,121,121,120,121,122,121,122,121,120,123,121,122,122,121,122,121,120,120,121,120,121,121,121,121,121,123,120
120,121,121,122,121,122,123,120,120,121,120,121,120,121,122,120,121,121,121,121,120,120,121,121,120,122,121,122,121,121,121,120,122,122,121,121,121,121,121,122,120,121,121,122,120,120,121,120,121,122,121,122,122,121,121,120,122,122,122,121,120,121,121,121,119,121,120,121,121,121,122,120,122,121,121,122,121,122,122,120,120,121,122,122,122,121,120,121,121,122,120,122,121,121,123,121,121,122,122,122,121,124,117,121,121,122,121,123,122,121,123,121,121,122,121,121,120,119,118,119,120,121,121,123,122,121,121,119
121,122,121,122,121,121,122,121,120,121,121,122,121,121,122,120,121,121,120,121,121,121,123,121,121,122,121,122,121,119,112,119,121,121,121,122,121,120,122,120,120,121,121,122,121,120,121,120,120,121,121,122,121,122,122,121,121,121,120,122,121,121,118,120,122,122,121,121,120,120,123,121,119,121,121,121,121,120,123,121,121,122,122,123,122,123,119,120,121,122,121,121,120,120,117,120,121,122,120,121,121,121,124,121,120,121,121,122,120,121,119,119,121,121,121,123,122,122,122,121,119,121,121,122,122,122,122,120
119,120,121,122,121,121,121,120,121,121,121,122,121,120,119,119,121,123,121,121,121,121,125,120,120,122,122,122,121,120,124,122,122,120,120,121,121,121,119,119,119,121,121,121,121,122,125,119,121,120,120,122,121,121,118,121,122,123,121,122,122,121,123,121,119,122,121,121,121,121,122,120,121,122,121,122,121,121,121,120,121,121,120,122,121,122,122,121,122,123,122,122,121,120,123,122,119,121,121,121,121,122,117,118,121,121,120,121,120,120,117,120,121,122,121,121,121,121,123,121,121,122,122,123,121,119,119,120
120,122,121,122,121,120,120,119,121,122,122,122,121,120,120,120,120,120,120,122,121,121,121,121,121,122,121,122,120,121,121,120,120,121,121,121,121,121,121,121,118,121,121,122,121,122,117,119,120,122,121,122,122,121,122,121,122,122,121,121,121,119,121,122,120,122,122,123,121,122,122,120,120,121,121,121,121,121,120,120,121,121,121,122,121,121,122,121,121,121,121,122,121,121,121,121,120,122,121,122,122,121,121,120,120,122,120,121,121,120,121,120,121,121,121,122,121,120,120,121,121,122,121,122,121,120,121,121
119,121,121,122,121,121,121,120,121,122,121,121,121,121,122,119,120,122,121,121,120,121,122,120,120,121,121,122,122,121,121,121,121,122,121,121,121,121,121,120,121,123,121,121,121,121,118,120,120,122,121,121,120,121,124,120,121,122,121,121,121,121,115,120,121,120,120,121,121,121,121,121,121,122,121,122,121,122,123,121,121,122,121,122,121,120,121,121,119,121,122,122,121,120,121,120,121,122,121,122,121,121,122,121,122,122,121,122,120,121,122,121,120,121,120,121,121,121,119,119,121,121,120,122,121,121,123,121
121,122,121,122,122,123,123,122,123,122,121,122,120,120,121,122,118,121,120,121,121,122,120,119,122,122,121,122,120,120,121,120,122,121,120,121,121,121,123,121,120,121,121,122,121,121,119,119,122,121,122,122,122,123,125,120,119,121,121,122,121,120,119,120,120,121,120,121,121,121,120,119,122,122,122,121,120,121,119,121,120,121,122,121,120,120,109,121,121,121,121,122,121,121,126,120,121,121,120,121,121,120,120,120,120,122,122,122,122,120,121,120,120,121,121,122,122,121,125,120,122,122,121,122,121,121,116,121
121,122,121,121,121,122,126,120,121,122,120,121,120,120,122,121,120,122,121,121,120,121,121,120,121,121,121,122,122,122,122,119,122,122,122,122,121,120,124,125,121,122,121,122,121,122,113,120,120,121,121,122,121,120,121,119,121,122,121,121,121,120,120,121,120,121,121,122,122,121,119,119,120,120,120,122,120,120,120,119,122,122,122,122,122,121,121,121,120,122,121,122,120,120,121,120,119,120,121,122,121,121,119,118,122,122,122,122,121,120,123,121,120,121,121,122,122,122,122,120,121,122,121,121,121,120,120,119
121,121,120,121,121,120,119,120,120,121,120,121,121,122,127,121,120,121,121,122,122,121,117,118,121,122,121,122,122,122,124,120,120,122,121,122,122,122,126,118,120,122,120,121,121,121,122,120,122,121,120,121,121,121,124,120,121,122,121,121,121,121,122,121,121,122,121,122,121,120,122,120,119,120,121,122,121,121,120,120,120,121,120,122,121,122,123,121,121,122,121,121,120,120,121,121,121,121,121,122,122,122,121,120,120,122,122,121,120,120,121,120,121,121,120,121,121,121,122,121,120,121,121,122,121,121,120,119
122,121,121,122,121,121,120,119,119,123,122,122,121,120,121,120,121,122,121,121,121,122,119,121,121,121,120,121,120,120,121,120,119,121,121,122,121,121,120,119,121,122,121,122,122,121,122,120,121,121,120,121,121,121,121,119,120,122,121,122,121,121,122,120,121,121,121,122,121,122,120,120,120,122,122,122,121,120,112,120,121,121,121,121,121,121,119,120,120,121,120,121,121,120,123,120,120,120,120,121,121,122,123,121,122,122,121,121,121,121,121,121,120,122,121,122,122,121,120,120,121,122,121,121,121,121,122,121
121,122,122,122,120,121,121,120,120,122,120,121,120,121,121,121,121,121,121,122,121,120,120,119,122,122,121,121,121,121,121,120,120,121,121,121,121,121,121,121,122,122,120,122,121,121,121,121,120,121,122,123,121,121,121,120,121,121,120,121,121,122,122,121,120,121,121,122,121,120,115,120,121,121,120,121,121,121,121,120,120,123,121,122,122,122,125,120,123,123,121,121,121,120,117,122,120,121,121,122,122,121,121,120,121,122,121,122,121,121,121,120,120,122,121,121,121,121,122,120,120,120,120,122,121,122,122,121
120,122,121,122,122,122,121,119,121,122,121,122,122,121,121,119,120,121,121,122,120,120,121,120,121,122,122,122,121,119,119,119,120,121,120,121,121,121,121,120,121,122,121,122,121,121,121,120,121,122,121,121,121,120,121,120,119,121,121,122,121,121,119,119,120,121,121,122,121,120,122,122,124,121,120,121,120,121,120,120,120,121,121,122,121,120,121,120,121,122,121,122,121,120,121,121,120,122,122,122,122,120,121,120,119,121,121,122,122,122,121,120,120,120,120,121,121,121,121,120,119,121,121,122,120,120,121,120
122,123,122,122,122,120,122,122,121,121,121,122,120,121,121,121,120,122,121,122,121,121,121,119,121,122,121,122,120,121,122,120,122,122,121,122,121,120,120,121,121,122,121,121,121,121,121,121,121,121,121,122,121,121,121,119,119,121,121,122,121,120,120,119,121,121,122,122,120,121,121,120,120,121,121,122,121,121,120,120,120,122,121,122,121,121,121,120,121,122,120,121,121,121,122,121,121,121,120,122,121,122,122,121,121,122,121,123,122,121,121,121,119,121,121,122,121,120,120,120,120,122,121,123,121,121,121,120
122,122,121,122,121,121,121,121,122,123,122,122,122,122,122,121,119,121,121,122,122,121,121,121,120,121,121,122,120,119,119,119,120,123,121,122,121,121,121,121,120,121,121,122,122,121,121,119,121,122,121,121,121,121,121,120,119,121,120,121,121,121,121,121,120,121,121,122,120,121,123,121,121,121,121,122,121,120,120,119,122,122,122,123,122,121,122,122,120,122,121,122,120,122,122,120,123,122,120,121,121,120,122,122,119,121,120,121,121,121,122,121,120,121,121,122,120,120,118,119,122,121,121,121,121,120,123,121
121,122,121,122,121,120,118,119,121,121,120,121,121,121,122,120,121,121,120,121,121,121,120,121,120,121,120,121,121,123,122,119,121,123,121,121,121,121,121,121,121,122,121,122,120,120,121,121,120,121,121,122,121,120,121,120,120,121,120,121,121,121,121,119,120,121,121,122,122,121,119,120,120,122,121,122,121,122,121,120,122,121,121,122,121,122,123,121,119,121,121,123,121,121,118,120,120,121,121,121,121,121,122,120,122,122,121,122,122,122,122,121,120,121,120,121,120,121,121,120,121,122,122,122,120,121,122,121
122,122,121,121,121,122,123,121,120,121,121,122,122,121,120,119,120,121,121,122,121,122,123,122,121,122,121,121,121,121,121,121,121,122,121,121,121,121,121,121,121,121,120,121,121,123,122,120,120,121,120,121,121,121,121,121,121,122,121,122,121,120,120,120,121,122,121,121,120,121,122,121,121,122,122,122,121,121,121,121,121,121,120,122,121,121,122,121,121,122,121,121,121,121,123,121,119,121,121,122,121,121,122,120,119,120,121,122,121,121,122,119,122,122,120,121,121,121,121,121,120,122,122,122,120,119,121,120
121,123,121,122,122,124,123,122,120,121,120,122,121,120,119,119,120,120,120,121,121,121,121,120,120,122,121,122,121,121,121,121,121,122,122,121,121,121,121,120,119,121,121,122,121,120,121,120,122,122,121,121,120,121,121,120,120,122,121,122,121,121,122,121,120,121,120,121,121,121,121,121,122,121,121,122,121,122,122,121,119,120,121,122,121,120,120,119,120,122,121,122,122,121,121,119,121,122,121,121,120,120,120,120,121,122,122,122,121,121,122,122,121,122,121,122,121,121,120,121,119,121,121,122,122,121,119,118
121,122,121,122,121,122,121,120,122,122,121,122,121,121,121,121,121,121,121,122,121,122,121,120,120,122,121,122,122,120,120,120,121,121,121,122,122,121,121,120,119,121,121,122,122,121,121,119,121,122,121,122,121,120,121,120,121,122,121,121,121,121,121,121,121,122,121,121,121,121,121,121,120,121,120,120,121,121,122,121,121,122,121,122,122,122,121,120,120,121,121,122,121,121,122,121,121,122,122,122,121,121,121,120,120,121,121,122,122,122,121,120,122,122,121,122,121,121,121,120,121,122,120,121,121,121,122,121
120,121,121,122,121,122,121,120,121,121,121,121,121,122,122,122,121,123,121,121,121,121,121,120,121,121,121,121,121,122,122,121,119,121,120,122,121,122,121,119,120,120,120,121,121,121,121,120,120,120,121,121,121,121,121,119,120,122,121,122,122,120,120,119,121,122,122,122,120,121,122,121,120,122,122,122,120,119,121,121,120,121,120,122,121,122,122,121,121,122,121,122,122,122,124,120,119,120,121,122,121,121,120,119,122,121,120,122,121,121,122,122,121,121,121,121,120,121,121,120,121,122,121,122,122,121,119,119
121,122,121,122,121,120,120,121,120,121,121,122,121,121,122,120,121,122,121,122,120,120,121,120,123,121,120,121,121,121,122,122,119,121,121,121,120,121,121,120,122,121,121,122,121,121,122,121,120,122,122,122,121,120,119,119,120,121,121,122,121,122,122,119,123,123,122,123,121,121,120,121,120,122,121,121,121,121,122,120,118,121,121,122,121,121,122,121,122,121,121,122,122,121,119,119,119,121,121,122,122,122,121,120,120,122,120,121,119,120,122,121,122,122,121,122,121,118,118,121,120,122,121,122,122,121,121,119
121,122,121,121,121,121,122,120,120,122,121,122,122,121,121,120,120,122,121,121,121,121,121,121,120,120,121,121,121,121,121,120,121,123,121,121,121,121,121,120,121,122,121,122,121,120,121,120,121,121,120,121,121,121,122,121,120,121,120,121,120,121,121,119,120,121,121,122,121,121,121,121,122,122,121,122,121,122,122,121,120,122,121,123,121,122,122,120,120,121,121,122,122,121,121,120,121,122,121,121,120,120,121,120,122,122,121,122,122,122,123,121,120,121,120,121,121,120,119,120,120,121,120,122,121,121,122,120
120,121,121,122,121,121,121,119,121,122,121,122,121,121,121,120,121,121,120,121,121,121,122,121,120,121,121,122,122,122,121,120,121,121,122,121,120,120,121,120,120,122,121,122,122,121,123,120,121,121,121,122,121,121,120,121,122,121,120,122,121,121,122,121,120,122,122,123,122,121,121,121,121,122,121,121,121,121,121,120,120,122,122,122,121,121,122,121,121,122,121,121,119,121,121,120,121,122,120,122,125,122,122,121,119,121,122,123,122,120,122,122,119,121,121,122,122,121,118,118,122,121,121,122,121,121,123,121
120,122,121,122,121,121,123,120,120,121,121,122,120,121,122,121,119,121,121,121,122,121,121,120,122,121,121,121,121,121,122,121,120,122,121,122,121,121,121,120,120,121,121,121,121,121,120,120,120,122,121,122,120,121,121,120,120,122,120,122,122,122,122,120,121,122,121,122,122,121,120,121,120,121,121,122,121,121,123,120,120,121,121,122,121,120,118,119,122,122,122,122,121,119,123,121,121,123,121,122,120,120,122,121,121,122,121,121,120,120,122,120,120,121,121,122,121,121,122,120,122,122,121,122,121,120,120,120
120,121,121,122,121,121,121,120,121,122,122,122,122,120,120,121,121,121,121,122,121,121,121,121,119,122,122,122,121,121,121,119,120,120,120,121,121,121,121,121,121,121,121,121,116,121,122,120,122,122,120,121,121,121,122,119,120,121,121,121,119,120,121,120,119,121,121,123,122,123,124,121,122,121,120,122,123,121,120,121,120,120,121,121,120,122,123,120,121,121,120,121,120,120,121,120,122,123,121,122,122,121,122,121,121,122,121,122,122,121,122,121,121,122,121,121,121,121,119,121,121,121,121,121,121,122,123,120
119,120,120,121,121,121,122,120,122,122,121,122,122,121,121,121,120,121,120,121,121,121,121,121,121,121,120,121,121,121,121,120,119,121,121,122,122,121,121,120,122,122,121,122,122,122,121,121,118,120,121,122,121,121,122,119,121,122,122,122,122,121,120,120,121,121,121,122,121,122,121,121,120,122,122,122,121,122,122,120,122,122,122,121,120,120,121,120,119,121,120,121,121,121,121,120,121,121,121,122,121,121,121,120,121,123,121,122,122,122,122,121,119,120,120,122,121,122,121,120,121,121,121,122,121,121,122,122
121,122,121,122,120,122,123,120,120,121,120,122,121,121,122,121,120,122,121,123,122,120,120,121,121,122,121,121,121,121,122,121,120,122,121,122,121,121,122,120,121,122,121,123,121,120,121,120,120,121,121,122,121,121,123,120,120,121,120,122,121,121,122,121,120,121,121,122,121,121,119,118,122,121,120,121,121,121,122,121,119,121,121,122,121,121,121,119,121,121,120,122,121,121,121,120,120,122,121,121,121,121,121,120,122,122,120,121,121,121,121,120,121,121,121,122,121,121,122,122,121,122,121,123,121,121,123,121
121,121,120,121,121,121,122,121,120,122,120,121,121,121,121,120,121,122,121,122,121,121,120,120,120,121,121,122,122,122,122,120,122,121,121,122,121,122,121,122,119,121,121,122,121,120,120,120,121,122,121,121,121,121,121,120,120,121,121,121,121,120,121,120,121,122,121,122,121,121,121,120,119,122,121,122,120,120,121,119,122,122,121,121,121,121,122,121,121,122,121,122,121,120,120,120,120,121,120,122,121,121,121,121,122,121,120,121,122,121,123,122,120,122,120,122,121,121,121,120,120,121,121,122,122,122,123,120
120,121,121,121,121,121,121,119,120,121,120,121,121,121,121,120,121,121,120,122,121,121,122,120,119,121,121,122,122,121,120,120,120,121,121,122,121,121,121,120,120,122,121,122,122,121,120,120,121,122,122,123,121,120,121,121,122,122,121,122,120,121,122,120,119,121,121,121,121,121,122,121,122,121,121,121,121,121,119,119,120,121,121,122,121,121,121,120,120,122,121,121,120,121,122,121,120,122,121,121,120,121,119,120,121,122,121,121,121,121,122,121,121,122,122,122,120,121,122,120,119,121,121,121,121,121,121,121
121,121,120,121,121,121,122,120,120,121,121,122,121,121,121,121,119,121,121,122,120,121,121,120,120,122,122,122,120,120,121,120,122,121,121,122,122,121,120,121,121,122,122,122,122,121,121,121,120,121,120,121,120,120,121,120,122,122,120,121,121,122,121,120,121,121,120,122,121,121,122,120,120,122,122,122,122,122,121,120,120,120,121,122,121,121,121,121,119,121,121,121,121,121,121,119,121,122,121,123,121,121,120,120,120,121,121,122,121,121,122,120,120,121,120,122,121,121,122,121,120,120,121,121,121,121,121,120
122,123,121,122,121,121,121,122,121,121,120,121,121,121,122,121,121,122,121,121,120,120,121,119,121,122,121,122,122,122,122,122,121,122,121,121,120,121,122,120,120,121,121,122,121,121,122,121,123,121,121,121,120,121,122,121,116,121,120,121,121,121,122,119,122,121,120,122,122,122,122,121,122,122,121,121,121,120,121,120,120,122,122,123,122,121,122,121,120,120,121,122,121,121,121,120,119,120,121,122,121,121,122,120,123,122,122,122,120,119,120,121,119,120,121,122,122,123,124,120,120,122,121,122,121,121,117,120
120,121,121,122,122,122,125,121,122,122,121,121,121,121,124,121,120,122,121,121,121,121,123,120,121,122,121,122,120,120,121,120,121,123,121,121,120,121,121,121,120,121,120,122,121,121,122,120,121,122,121,121,121,121,119,120,122,122,121,122,121,121,123,122,119,120,120,121,121,121,121,119,119,121,121,122,121,122,125,121,123,121,121,122,120,120,121,121,121,122,122,122,121,120,121,121,120,122,121,122,121,121,121,120,120,121,121,122,121,118,120,120,121,122,122,122,121,121,121,120,122,122,122,122,121,120,122,121
120,122,121,122,122,121,122,120,120,120,121,122,121,120,120,119,121,122,122,122,121,122,123,120,120,121,121,122,121,121,121,120,121,122,122,122,122,121,121,120,119,121,121,122,121,122,121,119,121,121,121,122,120,120,121,119,121,122,121,122,120,121,121,120,120,122,122,121,121,120,121,120,119,120,121,122,121,121,118,120,121,122,121,122,122,122,123,121,120,122,121,122,121,118,119,120,120,121,122,122,121,120,121,120,121,122,121,122,121,122,121,121,121,121,121,121,121,121,122,120,123,122,121,122,121,122,122,120
119,121,121,122,122,121,121,120,120,121,121,122,121,121,122,121,122,122,121,121,121,121,118,120,121,122,121,122,122,122,122,121,120,121,121,122,121,120,121,119,121,122,121,122,121,121,120,119,118,120,120,121,121,121,122,119,122,122,121,122,121,120,122,121,120,121,121,122,120,119,122,120,121,122,121,122,120,120,120,120,121,122,121,122,121,121,124,121,122,122,121,121,120,121,121,121,119,121,121,122,120,121,122,120,121,122,121,121,121,121,119,120,121,122,121,122,122,122,128,122,121,121,120,121,121,121,118,119
119,121,121,122,122,121,121,120,121,122,122,122,121,121,121,120,123,122,120,121,121,121,122,121,120,122,121,122,120,121,121,120,121,122,121,121,121,121,122,120,120,120,120,122,121,120,121,120,122,121,120,121,121,121,122,120,121,122,121,122,122,122,121,120,119,121,120,121,121,120,122,120,121,123,121,122,121,121,122,121,121,122,121,121,121,121,123,123,120,122,122,122,122,122,121,121,121,122,121,122,121,121,122,120,121,122,120,121,120,120,121,121,121,122,121,121,120,122,124,120,121,122,121,122,121,121,121,122
118,121,121,122,121,121,121,118,121,122,121,122,121,120,121,121,122,120,121,121,121,122,122,121,118,121,121,121,121,121,120,119,121,121,121,122,121,120,119,119,121,122,121,122,121,122,124,122,119,121,121,122,122,121,120,119,121,122,122,122,121,120,121,120,122,122,122,122,121,120,120,119,118,120,120,121,121,121,121,121,121,122,121,122,121,120,120,120,120,122,121,122,122,122,120,119,121,122,121,122,122,122,122,120,120,121,120,121,121,121,122,121,122,121,121,122,122,121,121,121,120,122,121,122,121,121,122,120
120,122,121,122,121,121,120,121,120,121,120,121,121,121,123,121,121,122,121,121,120,121,122,121,121,122,121,121,121,121,122,120,121,122,121,122,121,122,122,120,120,121,120,122,121,122,122,121,120,121,121,121,120,120,121,119,121,122,121,122,121,121,123,121,120,121,121,122,122,121,120,122,121,121,121,122,122,122,118,119,119,120,120,121,121,121,123,120,120,121,120,121,121,120,121,120,121,121,121,122,121,121,123,119,121,122,122,123,122,122,119,121,121,121,121,122,121,120,120,120,120,122,120,121,121,121,120,120
120,121,121,122,122,121,122,120,120,121,121,122,121,121,119,121,121,121,121,122,122,122,119,120,119,122,121,121,121,121,125,120,121,122,122,121,120,120,120,120,120,121,121,122,121,120,117,119,120,121,121,122,122,122,129,120,122,122,121,121,121,122,121,121,121,121,120,121,121,120,120,121,118,121,121,122,121,121,121,118,123,121,121,122,121,121,126,121,121,123,121,122,122,122,127,122,121,121,121,121,121,121,119,120,122,122,121,122,121,120,123,120,120,121,121,123,121,121,123,121,119,121,121,121,121,121,119,119
121,121,120,121,121,121,121,121,121,121,121,122,121,120,121,121,120,121,121,122,121,121,118,118,122,122,121,121,121,122,126,126,121,121,121,122,121,121,118,118,120,122,121,122,121,121,121,120,121,121,121,122,122,121,123,119,120,121,121,121,121,121,120,120,120,121,121,122,122,121,118,120,121,122,121,122,121,122,128,121,122,121,120,121,121,120,120,121,117,121,121,123,122,121,122,120,123,122,121,121,121,120,118,119,120,121,121,122,121,122,127,121,120,121,121,122,120,120,122,119,121,121,120,121,120,120,112,120
121,122,122,122,121,122,127,122,120,121,120,121,121,121,118,120,122,121,121,122,121,120,120,119,120,122,121,122,121,121,122,121,120,121,121,122,121,121,122,119,121,123,121,122,120,120,120,120,121,121,120,122,121,121,123,121,122,122,121,121,121,121,121,121,120,122,122,122,121,121,121,120,121,122,120,121,121,121,122,120,122,122,121,121,120,121,121,121,121,121,120,121,121,121,122,120,121,122,121,122,121,121,121,121,120,121,121,122,121,120,119,119,119,120,121,122,121,122,124,123,122,121,121,122,122,122,124,120
119,121,121,122,121,119,119,119,122,122,121,121,121,122,123,120,121,121,121,122,121,122,123,121,119,121,121,121,119,120,121,120,121,122,121,122,122,121,122,121,120,121,121,122,122,121,121,119,120,122,121,122,120,120,119,121,121,122,121,123,123,123,123,121,121,121,120,121,121,121,122,121,120,121,121,122,121,121,120,120,122,122,121,121,121,122,128,122,121,121,121,122,121,122,120,120,121,121,121,121,121,121,122,121,121,122,121,122,121,122,122,121,120,121,121,122,121,122,121,119,120,121,121,122,121,122,124,121
118,120,120,121,121,121,121,120,121,122,120,122,122,121,118,119,121,123,121,121,121,122,125,121,120,121,121,121,121,121,121,120,121,121,120,122,121,121,123,120,120,122,121,121,121,121,116,119,121,121,121,122,121,121,123,121,120,122,122,122,122,121,123,120,121,121,120,122,121,121,121,120,122,122,121,121,120,121,121,120,120,123,122,122,122,122,123,122,118,120,121,122,121,120,120,119,121,122,121,122,122,121,121,120,121,122,121,121,121,121,120,120,121,122,122,122,121,121,125,122,122,123,121,122,121,121,122,122
118,120,121,122,121,122,121,120,121,122,122,122,121,121,121,120,122,122,121,122,121,121,121,121,121,122,121,121,120,121,121,121,120,122,121,122,121,120,121,120,120,121,121,122,122,121,121,119,121,121,121,122,121,121,120,121,121,122,121,122,122,121,123,121,121,121,121,121,121,121,123,120,121,122,121,123,121,120,119,120,122,122,122,122,121,120,123,121,120,122,121,122,121,121,122,121,121,120,120,121,121,121,121,120,121,120,121,121,121,121,122,121,121,121,120,121,121,121,119,121,120,121,121,122,121,122,122,120
119,121,121,122,121,121,119,119,121,121,121,122,121,118,122,121,120,122,121,121,121,122,123,120,121,120,121,122,121,121,120,120,121,121,121,122,122,121,123,120,121,122,121,122,121,122,125,121,121,122,121,122,121,120,121,121,120,121,121,122,120,120,121,120,121,122,122,122,121,121,121,121,121,122,121,122,122,121,120,120,119,121,121,122,121,120,119,119,121,122,121,121,121,122,130,120,120,122,122,122,121,121,120,121,120,121,121,122,120,120,120,120,120,122,121,122,121,122,121,120,120,122,122,122,121,121,122,120
120,120,121,121,121,121,122,121,121,122,121,121,120,120,121,121,120,121,121,122,121,122,124,120,120,121,122,122,122,120,115,121,123,121,120,121,121,119,121,120,121,122,121,121,121,121,121,121,120,121,120,122,121,121,121,121,120,121,120,121,120,122,128,120,120,121,121,122,122,122,121,121,121,122,121,122,121,120,121,120,121,122,121,122,122,122,121,119,121,123,121,121,120,120,121,121,121,122,121,121,121,121,122,121,121,122,121,123,122,123,123,123,122,121,120,121,120,121,121,120,122,122,120,121,121,121,122,121
117,120,121,122,122,122,122,118,120,121,121,122,121,121,120,120,120,122,121,122,122,122,122,120,120,122,121,123,121,121,121,119,122,122,121,121,121,122,122,122,119,121,122,122,120,120,119,119,121,122,121,121,121,121,126,121,120,121,121,122,121,120,118,119,121,122,122,121,121,120,116,121,119,120,120,121,121,121,124,119,122,121,121,122,121,119,107,119,121,122,120,121,122,122,141,123,119,121,121,122,121,121,118,119,120,122,122,121,120,119,120,122,121,121,121,121,121,123,107,119,121,121,121,121,122,120,137,122
120,122,121,121,120,119,115,118,121,123,121,121,120,118,119,120,120,122,121,121,121,120,122,120,121,122,121,122,122,121,122,120,118,120,120,121,121,121,121,120,121,122,122,122,122,121,121,119,120,121,121,122,122,122,122,121,120,122,121,122,121,121,122,120,120,122,121,121,121,122,126,120,122,122,121,121,121,119,120,122,122,122,120,122,121,121,116,120,120,122,122,122,121,122,127,119,121,122,121,121,119,118,118,121,121,122,121,123,121,124,132,120,121,122,122,123,123,132,124,120,121,121,121,122,121,118,125,121
120,121,121,122,120,120,118,119,120,122,121,121,121,121,121,120,121,121,121,122,121,120,121,120,120,120,120,121,121,121,121,120,121,122,121,122,121,121,122,122,120,122,121,122,121,121,124,121,122,122,122,122,122,120,120,121,118,120,121,122,121,121,121,119,122,121,121,122,121,122,121,120,120,122,121,121,120,120,120,119,121,122,121,122,121,120,118,119,120,121,121,122,121,123,124,120,121,122,121,122,121,118,108,119,121,122,121,123,122,127,155,125,119,121,121,122,119,116,110,117,120,122,121,121,120,119,118,119
121,121,121,122,121,120,121,124,120,122,121,122,121,120,120,119,121,123,121,121,120,121,122,120,120,121,121,122,120,117,120,120,122,122,122,122,121,122,120,120,119,122,121,122,121,120,122,119,121,121,120,120,120,121,124,123,120,122,122,123,121,123,119,117,120,122,122,124,126,118,121,120,121,122,120,120,120,121,118,119,121,122,121,123,120,124,122,123,122,122,121,123,124,122,121,120,123,123,122,122,122,122,135,135,122,123,122,122,121,119,120,122,121,122,121,122,120,121,124,116,120,121,121,121,121,120,119,117
121,122,121,121,116,120,116,119,121,122,122,125,126,121,109,119,120,122,122,122,123,124,143,124,120,121,121,121,119,118,108,119,121,122,121,121,121,119,119,121,120,121,121,122,119,122,120,119,121,122,121,121,124,122,131,123,120,121,121,122,123,123,124,122,121,121,119,120,123,122,122,125,119,119,118,116,113,121,118,117,119,125,125,131,128,112,119,113,121,121,120,123,115,122,129,123,117,116,116,108,119,117,110,108,122,123,117,114,99,123,138,130,124,126,136,124,107,121,98,120,120,126,128,141,112,121,114,111
123,123,129,123,75,119,102,130,122,130,135,152,151,135,164,115,128,123,109,104,76,129,185,153,125,123,145,139,136,144,106,123,113,115,106,115,115,115,100,118,117,122,128,111,91,94,89,107,131,133,132,151,215,144,103,119,132,129,130,137,112,128,124,153,109,109,97,89,100,126,6,79,108,110,117,122,85,108,0,90,125,130,137,134,165,124,0,134,122,121,122,116,119,122,0,99,121,118,125,110,122,123,0,130,125,123,103,138,177,121,3,141,118,122,120,114,115,119,18,113,123,127,120,142,147,119,74,120
121,120,108,112,121,121,83,132,114,121,122,120,122,123,89,99,120,118,111,116,121,119,97,118,122,122,140,133,122,121,123,116,122,124,121,121,120,120,99,119,121,120,118,120,121,118,62,122,121,123,121,123,120,119,66,122,115,118,111,115,117,121,68,151,122,123,112,122,122,123,100,116,122,121,121,123,124,126,101,117,123,121,126,120,121,120,120,119,119,118,107,116,120,121,133,119,118,130,132,126,119,111,127,120,119,121,114,121,120,118,98,115,118,116,115,118,120,130,118,114,120,121,101,122,123,118,113,117
121,120,99,104,115,110,129,101,130,127,68,116,122,131,138,135,125,94,132,132,132,131,123,153,122,0,82,102,112,136,139,119,113,0,82,81,90,91,132,114,120,0,158,127,109,132,103,114,115,0,166,152,121,121,116,118,122,0,81,87,100,105,138,97,114,0,137,134,127,121,120,90,121,0,134,121,115,112,79,128,118,0,112,117,126,120,112,105,117,41,120,121,120,143,130,114,125,74,113,118,118,117,137,119,127,93,121,129,137,122,147,125,106,105,112,118,120,119,156,98,125,111,114,117,116,118,108,128
121,114,137,128,123,120,113,102,126,117,115,115,116,120,79,135,114,119,130,122,124,128,112,100,120,119,112,124,120,116,157,120,125,120,113,115,121,122,145,126,118,120,138,129,120,116,103,113,121,120,109,113,119,118,118,128,123,121,76,112,126,129,139,123,123,120,170,142,119,112,120,120,120,121,98,104,103,111,113,114,123,121,154,128,121,130,95,129,113,122,111,123,122,125,126,108,124,121,100,120,117,124,125,110,115,121,83,104,114,119,80,113,121,121,228,149,124,125,95,136,131,121,111,111,123,104,109,131
129,120,103,113,114,132,99,214,113,122,140,118,122,119,108,99,120,121,103,112,126,110,111,110,129,120,122,129,126,125,125,123,123,122,113,115,123,121,117,140,122,121,110,115,118,119,101,125,115,122,103,116,118,104,116,118,110,121,108,118,118,119,108,97,124,121,114,120,129,131,102,116,123,121,146,123,122,107,100,115,121,121,101,118,120,123,124,166,119,121,143,108,119,121,129,120,118,121,101,128,120,117,135,106,123,121,109,115,122,123,86,127,125,121,102,113,125,125,112,119,116,121,138,125,119,117,127,122
115,121,145,119,118,110,108,113,116,122,58,85,100,117,107,141,115,121,168,167,130,125,94,91,125,121,102,101,114,122,105,134,124,120,123,121,121,153,113,111,119,121,110,117,111,133,107,121,117,121,104,110,110,110,97,99,115,121,141,137,123,115,120,138,121,121,119,117,123,112,121,109,121,121,116,117,117,128,103,126,107,121,121,123,122,130,129,128,124,122,115,118,116,120,129,113,130,121,73,110,132,130,129,126,107,122,126,123,105,118,112,75,130,120,116,126,121,122,132,138,129,121,86,102,120,126,127,130
116,121,171,148,128,115,119,110,120,121,103,109,121,118,107,96,118,121,112,113,122,109,104,119,124,122,105,126,118,125,129,124,127,121,171,153,132,131,129,129,123,122,113,112,118,133,116,115,117,122,141,134,126,119,136,137,122,121,121,110,116,137,134,117,119,121,121,122,119,120,100,117,114,122,108,112,115,118,104,120,126,121,118,121,127,136,145,74,121,121,151,125,112,107,141,92,114,122,107,122,128,109,127,129,126,121,120,121,128,118,91,116,129,121,132,126,123,118,109,115,127,122,114,123,127,95,132,143
119,121,131,123,115,110,96,120,118,121,201,157,121,109,84,110,108,122,64,103,141,146,130,85,121,121,141,136,122,120,126,109,124,121,103,112,119,112,120,111,111,121,106,106,114,119,93,111,126,121,109,120,135,109,104,118,129,121,172,150,129,134,125,124,123,121,126,123,127,126,114,139,119,121,120,115,121,122,113,104,119,121,103,119,117,126,116,125,127,121,141,133,125,124,140,115,126,122,146,133,123,121,120,135,122,121,114,115,118,119,108,125,116,122,131,119,118,119,114,131,100,122,133,127,122,120,146,82
114,121,169,141,123,124,125,110,125,121,134,134,121,109,117,110,119,121,97,109,114,119,143,113,125,121,137,124,137,120,153,134,128,122,107,115,129,118,111,125,123,121,131,129,129,126,118,134,118,121,125,129,119,105,108,112,117,122,128,123,118,125,111,117,122,121,117,125,124,116,125,116,129,122,128,121,120,121,115,102,133,121,118,120,129,141,116,185,103,121,118,118,118,94,120,95,122,121,106,114,120,118,120,123,124,121,136,119,119,127,121,128,125,122,136,117,119,103,121,118,118,122,101,117,119,118,121,117
115,121,145,132,139,115,121,124,122,121,102,115,115,115,121,116,135,121,93,120,129,114,121,122,122,121,110,113,123,105,121,134,118,122,128,124,107,136,121,109,121,121,112,125,126,113,120,93,132,120,121,123,132,125,121,176,124,122,107,114,116,125,121,117,116,121,123,123,121,120,121,113,123,121,103,113,113,122,121,151,116,122,138,129,112,124,122,105,123,121,116,115,118,126,121,130,132,121,124,129,122,122,121,111,116,121,113,124,117,113,122,136,126,121,130,122,119,113,122,114,112,121,113,115,122,113,121,113
124,121,138,126,126,128,120,122,120,121,135,121,119,137,120,124,121,122,112,117,115,119,121,141,123,121,127,125,121,115,122,127,120,121,114,119,119,129,121,110,123,120,97,110,117,107,122,113,129,121,184,145,137,123,121,129,110,121,95,107,119,122,121,103,125,120,114,123,123,130,121,91,125,120,139,120,116,123,121,153,123,121,119,120,138,123,121,116,127,121,137,136,131,106,121,105,127,121,121,112,119,124,121,105,106,122,113,132,121,146,121,137,119,121,134,122,119,119,121,109,119,121,110,114,113,116,121,112
129,121,110,119,119,124,120,121,121,122,125,128,120,111,121,123,118,121,118,128,130,108,122,109,114,122,120,122,113,130,121,100,130,122,107,116,123,111,121,125,115,121,146,130,127,108,121,97,122,121,123,117,124,109,122,130,123,121,109,115,121,139,121,124,126,121,122,136,127,128,121,131,130,121,61,106,121,124,121,142,121,122,107,118,127,95,121,115,120,122,143,134,125,145,120,111,116,122,116,124,120,111,120,117,143,121,132,134,120,111,121,134,102,121,105,118,120,112,122,115,117,122,104,119,113,129,121,107
133,121,142,121,110,129,121,132,125,121,110,128,130,115,121,124,121,122,120,116,118,120,121,126,115,122,129,123,119,124,120,135,126,121,124,118,120,124,120,108,117,122,119,122,124,79,123,134,120,122,117,125,118,123,121,118,115,121,135,123,112,121,121,103,123,122,109,116,120,135,120,132,125,122,138,125,118,114,122,132,112,121,115,123,129,169,120,98,116,121,126,121,119,105,122,120,127,121,86,118,130,123,120,118,121,121,112,127,120,134,120,118,131,121,132,126,124,135,120,133,110,121,108,120,115,98,121,108
119,121,141,148,138,148,121,120,124,121,137,132,121,122,121,143,111,121,114,118,121,124,121,86,126,121,122,115,117,108,121,125,113,122,131,126,121,130,121,136,115,122,106,113,118,123,121,114,122,122,120,119,128,122,122,124,125,121,118,119,117,116,120,117,111,122,117,118,118,125,121,117,130,122,118,125,125,116,121,128,120,122,119,117,112,116,121,103,123,121,122,136,130,132,120,116,118,121,124,124,132,116,120,126,126,120,106,115,123,126,121,128,118,122,120,119,117,120,121,112,121,121,129,123,117,122,121,121
123,118,112,123,132,127,121,120,116,120,132,134,114,132,120,120,121,120,106,122,112,135,121,114,116,121,121,116,114,129,121,144,121,122,113,119,120,145,121,99,115,131,112,123,117,110,121,93,122,124,118,121,144,118,120,139,124,118,130,123,119,124,121,131,127,120,125,135,123,126,121,116,131,121,133,120,125,125,121,132,113,122,127,130,115,118,121,117,115,120,123,115,117,117,121,127,114,122,110,122,121,119,122,87,120,121,115,125,123,125,121,92,127,120,111,115,121,139,121,135,112,122,126,122,119,118,120,109
124,122,129,123,120,125,121,124,130,121,123,125,137,118,121,127,110,121,125,124,125,107,122,102,111,121,106,104,123,115,122,135,123,120,136,128,126,132,121,122,120,120,126,123,116,129,121,118,123,120,133,122,119,98,122,124,115,126,114,112,123,113,121,97,120,120,125,129,124,133,121,98,120,119,117,117,123,122,121,120,121,113,107,118,121,121,121,114,124,118,127,117,108,131,121,115,122,119,118,115,119,121,122,129,111,121,125,119,119,116,122,125,128,120,125,126,115,127,121,115,126,121,107,111,119,123,120,146
132,121,114,119,94,98,121,129,104,146,102,112,105,110,121,91,129,114,127,123,123,122,122,131,126,116,136,129,119,135,120,132,120,119,111,127,120,129,121,125,116,120,130,119,126,107,122,119,126,134,111,118,119,120,121,146,120,125,119,121,124,123,121,117,126,112,137,125,128,123,121,141,119,132,98,115,104,130,121,143,119,127,123,127,127,112,121,107,119,129,116,118,112,140,120,137,132,104,118,121,122,131,121,126,106,129,108,102,125,132,121,119,123,123,154,141,130,81,122,113,126,108,93,114,122,126,121,124
108,115,122,125,111,116,122,116,118,138,119,120,123,117,121,121,124,113,121,124,120,124,121,114,124,117,117,122,122,125,121,117,125,120,115,117,114,118,121,134,121,120,123,128,128,129,121,123,122,120,119,115,120,121,121,107,116,138,120,125,117,126,121,100,113,126,141,122,121,120,121,119,131,113,132,119,118,113,121,115,123,135,113,117,123,112,121,161,112,152,141,129,124,122,122,75,123,126,125,119,116,127,121,115,124,119,119,125,117,125,120,117,124,114,124,120,120,129,121,112,111,127,139,128,106,123,122,132
126,121,121,119,121,113,120,124,116,112,121,129,125,105,121,105,114,122,104,108,111,124,121,120,119,119,129,120,93,83,121,131,119,113,122,117,119,117,121,113,128,110,91,120,114,146,121,140,114,103,129,126,120,119,121,117,131,112,110,124,123,121,120,120,114,116,121,108,115,115,121,133,117,118,130,138,124,123,120,113,113,121,124,122,114,112,121,132,127,128,131,125,122,128,121,108,119,118,120,122,119,115,121,126,111,120,121,120,117,119,120,108,129,120,156,135,133,122,122,122,124,121,114,119,109,117,121,125
112,122,132,123,122,121,121,116,133,120,116,117,118,118,120,119,123,120,127,117,123,127,121,133,111,122,119,120,122,122,122,104,122,121,121,125,120,138,121,121,123,121,115,123,119,131,120,114,131,121,147,123,131,105,121,125,109,121,129,131,141,138,121,103,125,120,105,119,120,135,121,115,115,121,115,120,121,107,121,106,120,122,141,136,122,114,122,115,117,119,122,123,128,124,121,110,123,117,123,124,115,119,121,136,120,119,129,115,121,123,121,97,128,119,147,140,125,125,121,113,119,120,125,114,116,115,121,140
121,129,107,128,119,120,121,112,119,121,119,115,116,97,122,122,111,118,150,129,122,113,121,111,127,126,117,114,118,121,121,125,120,119,135,120,120,121,121,105,121,115,115,116,117,118,121,121,115,133,137,125,126,131,121,130,115,148,114,116,116,115,122,92,121,122,132,119,132,116,121,138,122,100,131,122,119,119,121,172,127,132,125,135,131,109,122,114,124,124,107,108,116,140,121,116,117,110,119,123,120,128,121,117,119,115,106,124,123,120,121,118,126,119,113,124,102,83,122,118,129,120,132,130,124,126,120,121
122,121,120,124,132,114,121,124,125,120,118,134,122,129,121,131,128,122,107,121,122,120,122,127,112,122,93,106,120,122,121,104,123,122,145,131,121,125,121,134,119,136,112,113,116,116,121,113,123,123,116,127,116,135,121,133,126,120,123,128,123,126,121,121,126,108,126,119,119,119,121,124,117,116,122,125,128,113,121,129,121,128,137,134,119,130,121,101,104,135,117,107,112,119,121,118,118,130,87,106,123,100,121,101,125,104,128,135,106,137,121,116,123,111,103,129,113,108,121,142,128,112,159,125,132,121,121,126
110,118,114,115,126,114,121,112,125,119,88,122,118,113,120,116,120,120,127,131,133,133,121,109,126,131,123,118,116,121,121,130,124,114,119,120,121,130,121,138,119,117,105,110,122,97,122,65,129,119,125,137,141,121,121,208,119,120,132,128,123,128,121,104,122,121,110,100,121,121,121,142,127,121,64,112,127,141,121,95,118,121,146,130,116,127,121,126,124,121,106,113,125,142,120,129,119,122,119,118,130,108,122,117,125,121,113,119,119,119,121,104,117,121,117,121,120,128,121,196,116,122,136,127,118,110,121,102
118,121,117,121,116,127,121,108,126,122,93,95,119,104,122,123,116,121,165,134,115,123,121,168,110,122,109,134,118,121,121,92,114,121,121,107,122,117,121,113,125,121,97,119,126,111,121,115,127,121,138,129,123,125,120,154,107,122,118,125,128,106,121,106,136,119,109,112,100,131,121,128,113,120,110,125,122,104,122,117,111,120,124,117,111,126,121,129,134,121,127,134,125,115,121,124,127,121,91,115,117,128,121,102,113,122,153,145,135,129,121,124,125,121,132,122,119,156,119,105,129,122,92,106,119,113,121,123
115,121,125,127,117,125,121,120,123,122,98,113,128,118,121,151,128,121,108,107,113,113,122,128,116,121,125,139,112,135,120,110,111,121,93,104,123,87,121,116,135,121,114,138,131,117,121,146,108,121,116,102,119,134,121,112,113,121,124,114,110,102,122,101,126,120,128,121,115,117,122,133,119,122,115,126,122,131,121,110,123,120,117,113,132,122,120,139,129,121,84,116,119,160,120,119,118,124,121,110,117,131,121,82,124,127,116,124,124,109,121,137,138,116,131,127,130,135,121,126,115,133,111,113,109,144,121,161
116,115,113,125,120,106,122,127,113,118,190,142,109,128,121,107,126,120,120,121,111,118,121,117,118,121,123,115,124,121,121,94,118,121,116,118,131,147,121,144,122,121,88,103,117,91,122,113,130,121,157,168,138,130,121,165,120,121,114,112,139,129,121,103,133,120,120,117,106,103,122,120,115,122,118,100,117,121,121,128,121,121,119,132,132,141,120,94,124,122,94,118,135,150,120,124,130,121,163,137,126,111,121,170,130,121,125,117,127,130,121,137,121,121,106,120,120,128,121,113,110,121,140,124,124,119,121,121
110,121,127,127,129,147,121,69,128,121,112,115,121,145,121,146,111,122,135,140,118,111,121,147,127,121,120,117,117,128,120,126,116,122,111,115,116,135,120,156,119,122,116,120,121,114,121,89,121,121,134,115,124,123,121,123,108,121,114,140,132,117,121,105,122,122,126,120,113,131,121,113,130,121,142,130,130,115,121,138,116,121,142,127,111,123,121,102,133,121,138,138,110,103,121,119,120,122,101,115,139,134,121,127,126,121,124,129,115,108,157,132,126,121,153,142,120,122,192,123,87,122,94,108,115,116,234,137
129,121,141,129,114,118,113,106,128,120,116,124,103,138,61,147,123,122,113,125,130,177,40,188,117,121,116,117,114,97,81,86,144,121,114,127,116,127,100,141,102,122,126,126,125,107,111,93,128,121,119,127,107,145,116,132,127,121,117,119,114,127,117,119,123,121,123,125,134,118,120,86,133,121,165,138,119,113,120,159,116,121,110,115,110,118,120,105,115,122,150,130,111,123,120,102,131,122,164,123,159,135,120,127,125,121,102,121,115,116,121,112,117,120,75,113,114,112,122,135,123,121,150,130,123,124,121,100
116,121,118,103,112,113,122,121,108,122,130,114,129,117,121,98,139,122,112,130,124,111,122,128,119,121,118,109,125,111,121,150,131,121,123,116,132,129,121,94,104,122,80,115,113,125,120,121,107,122,84,114,118,105,121,99,113,121,202,166,133,122,121,151,125,122,121,119,116,102,121,95,126,121,114,117,127,97,122,122,123,122,124,121,120,119,121,109,120,122,109,113,123,131,121,127,122,122,129,118,107,123,121,118,113,122,113,128,113,128,121,118,111,122,147,125,126,117,121,113,133,122,103,114,116,121,122,147
105,121,112,128,123,127,121,68,125,121,70,102,107,154,120,204,129,122,137,150,134,135,120,114,127,121,103,102,116,106,122,122,106,121,116,122,116,114,122,134,93,121,122,121,120,124,121,64,137,121,114,118,110,134,121,84,113,122,127,139,121,106,121,202,136,120,122,113,109,115,121,93,113,121,113,131,139,122,120,215,126,121,139,126,118,123,122,82,111,121,114,108,105,109,122,113,132,121,115,112,138,141,202,130,126,121,193,190,153,119,241,113,109,122,103,93,63,109,241,213,119,121,141,117,76,121,148,114
111,122,114,115,133,119,57,91,133,121,178,171,190,136,0,125,118,121,96,143,159,115,38,137,112,121,99,90,69,123,77,110,104,123,110,103,60,115,99,147,153,120,126,140,166,126,109,144,86,121,112,106,113,118,115,93,121,121,120,117,86,138,118,85,125,122,133,133,137,119,119,155,117,121,108,122,127,130,120,76,129,121,113,122,120,95,121,134,110,121,109,110,119,137,121,118,124,121,133,120,109,115,121,127,96,121,134,147,127,123,121,100,146,120,111,131,148,103,122,179,116,124,116,118,147,112,121,43
150,128,105,111,107,118,121,220,102,138,123,115,125,109,122,87,119,109,113,113,115,148,120,123,129,107,123,144,121,115,121,106,109,114,129,122,131,84,122,147,135,119,116,104,128,87,122,142,121,120,96,109,107,118,121,82,134,120,139,133,128,57,123,238,117,121,90,97,119,149,121,47,126,121,112,127,117,121,121,130,141,121,123,113,121,127,120,171,94,122,117,126,140,126,120,32,127,121,109,104,108,111,122,130,141,121,176,145,123,105,122,159,106,122,119,122,107,163,120,100,132,121,124,96,111,107,121,131
109,121,107,112,125,109,122,134,134,120,130,136,117,95,122,120,142,121,208,153,103,146,121,92,107,122,96,105,153,70,122,138,129,121,108,109,127,99,121,136,114,122,129,120,117,88,122,108,135,121,119,132,156,101,122,132,103,122,128,125,125,136,120,78,122,121,114,124,133,126,120,135,141,121,132,126,118,120,121,149,98,121,132,118,124,114,122,138,120,122,113,107,127,151,120,58,113,122,108,124,125,119,120,119,140,121,135,138,104,133,120,149,101,121,113,115,116,114,122,141,136,122,93,115,130,158,121,138
113,121,142,124,125,99,122,108,122,121,122,92,105,104,122,118,139,121,116,141,198,121,121,137,95,123,124,119,104,154,121,96,122,121,100,108,141,97,122,127,143,121,163,153,126,138,120,127,116,122,116,119,105,122,121,121,125,122,113,108,121,113,129,110,130,121,118,109,101,122,150,142,104,122,118,128,127,109,172,106,118,122,119,108,113,100,165,62,125,121,169,134,121,94,168,191,121,122,157,134,129,111,120,94,95,121,105,114,76,108,36,81,127,121,139,148,155,133,76,125,84,122,130,117,126,109,99,92
150,121,111,124,125,118,110,159,114,122,122,124,122,127,131,121,116,122,130,119,120,130,217,128,122,121,113,126,122,122,241,115,126,121,135,144,117,130,241,137,119,122,74,107,126,111,241,114,112,121,128,130,108,143,242,113,117,122,131,114,126,112,233,116,109,121,122,121,108,113,240,110,126,121,112,110,104,122,241,111,135,120,124,112,133,138,242,135,116,121,112,120,119,127,242,121,127,121,114,117,126,134,242,145,115,122,130,128,119,103,242,104,138,121,144,122,123,112,162,137,121,121,115,120,120,149,131,114
100,122,100,106,109,127,125,162,130,121,144,117,111,129,123,102,119,121,153,134,131,124,123,120,123,121,122,126,140,100,123,112,140,121,105,112,128,100,122,119,104,122,120,112,115,128,121,117,126,121,125,133,119,109,122,118,127,121,109,86,112,115,122,117,121,121,228,154,124,141,121,139,129,121,98,109,113,116,122,130,124,121,114,118,110,135,121,123,111,122,100,120,123,117,121,107,121,122,122,116,99,119,122,122,137,121,122,124,123,104,122,109,117,122,120,121,123,85,122,171,117,121,101,109,99,93,122,98
129,121,165,157,125,120,121,140,113,121,115,127,125,131,121,127,155,121,117,113,123,115,122,132,93,121,121,125,133,142,121,105,112,121,129,122,127,113,122,119,132,121,115,133,121,129,121,119,116,122,139,124,110,141,121,115,123,122,125,136,139,121,121,132,148,120,117,121,105,85,123,120,95,122,107,124,110,130,121,123,104,122,134,128,108,123,121,102,143,121,116,114,143,94,122,123,133,121,118,122,122,137,121,123,121,122,130,134,123,121,121,113,123,121,117,116,118,116,121,135,120,122,101,116,110,151,121,142
117,121,142,133,136,126,120,108,119,121,110,118,102,108,122,97,131,121,120,121,110,122,122,121,115,121,118,123,111,128,121,125,123,121,128,126,121,71,122,101,114,121,113,115,120,120,121,119,151,121,112,104,134,98,122,120,95,122,153,142,113,97,121,125,113,122,84,111,100,59,122,100,146,120,126,112,112,145,121,128,120,122,133,120,117,122,121,112,93,122,107,103,104,126,120,102,149,121,109,126,144,89,122,135,122,121,134,115,132,111,122,139,130,120,107,120,121,129,122,108,111,122,112,115,124,121,122,127
122,121,145,130,118,138,121,112,126,121,118,122,108,136,121,118,118,121,120,127,121,84,122,110,121,122,114,108,97,145,121,109,133,121,117,120,124,129,121,159,101,122,118,124,127,119,121,121,131,121,118,116,118,134,121,110,113,122,123,126,117,103,121,135,116,121,92,103,119,128,121,108,109,121,174,148,139,117,122,112,161,121,109,123,146,119,121,124,88,123,141,128,130,126,121,105,129,122,127,123,105,112,121,120,141,121,136,132,105,143,121,131,111,121,104,125,116,69,122,116,91,122,110,115,117,125,120,121
146,120,124,116,115,127,120,119,107,122,113,128,151,149,121,104,116,120,107,114,122,124,122,117,141,121,136,147,119,129,121,141,106,122,121,115,120,109,121,114,127,120,117,121,138,135,121,116,111,121,117,122,118,123,121,101,134,120,117,119,153,100,122,114,114,121,130,125,137,133,121,155,129,122,118,122,125,106,121,117,124,121,102,111,112,121,121,114,111,121,120,120,131,117,121,92,122,122,114,115,108,112,122,117,129,122,134,121,111,151,120,128,119,122,103,111,121,132,121,113,119,122,142,130,118,140,121,128
113,122,111,108,135,139,121,112,123,121,146,132,112,143,121,120,130,122,114,126,122,117,122,123,120,121,113,122,118,122,121,117,115,121,129,121,117,124,122,110,109,122,118,120,122,128,121,144,133,121,119,125,111,80,122,110,130,122,116,126,134,96,123,145,117,121,118,121,119,121,122,111,124,121,117,119,111,137,121,107,118,121,113,131,127,122,122,131,120,122,104,114,120,136,121,124,116,121,129,112,102,98,122,118,111,121,120,117,111,107,104,122,123,121,115,121,143,93,94,124,129,121,107,112,112,122,90,126
121,121,133,125,109,121,91,124,111,121,126,124,138,142,100,116,127,120,115,120,122,104,99,125,111,120,115,125,114,140,102,90,132,121,127,134,128,120,104,157,102,122,118,131,120,118,93,120,118,121,99,119,122,118,98,103,121,122,176,123,128,118,108,163,123,122,146,130,133,146,106,111,130,121,120,115,108,120,105,120,108,122,134,120,130,104,108,102,121,122,122,111,102,113,112,125,118,122,119,119,120,117,104,119,115,122,132,128,123,132,112,120,134,121,111,111,132,117,112,139,124,121,119,120,125,155,118,120
115,122,112,114,117,126,115,115,112,122,120,123,116,103,105,114,131,121,136,119,127,139,119,130,123,121,121,129,144,133,119,133,119,121,112,121,128,127,112,117,128,121,102,120,128,117,103,120,112,122,142,122,100,166,105,121,109,121,117,122,142,85,110,114,121,122,118,115,123,120,105,116,129,121,121,130,129,141,112,131,118,122,111,119,116,121,109,117,114,122,130,118,123,122,114,118,135,121,112,120,122,121,110,127,109,122,123,125,121,122,115,116,118,122,124,121,118,118,111,113,129,121,132,129,121,118,113,139
112,121,113,121,119,151,118,103,110,121,127,135,130,120,118,119,127,121,86,110,118,123,124,132,122,122,119,117,120,123,115,131,121,121,117,114,120,128,119,104,130,121,121,124,117,131,121,130,113,121,114,105,104,121,108,95,111,121,146,146,139,108,114,108,124,121,117,119,149,95,110,97,120,121,114,124,111,126,113,121,107,122,102,110,107,78,106,107,131,121,117,117,110,125,113,127,132,122,101,110,104,118,115,125,107,122,134,117,90,126,108,106,126,122,124,113,130,124,123,124,120,122,135,129,126,130,119,124
123,121,119,115,104,104,111,113,119,120,117,115,124,119,115,122,113,122,115,117,123,125,120,106,118,121,121,120,134,108,116,122,110,122,129,122,120,124,114,111,115,122,126,119,115,154,120,110,134,121,105,117,115,99,105,111,129,122,125,134,129,144,156,167,117,122,136,122,124,141,116,115,115,121,134,124,100,118,102,94,124,121,102,117,154,138,137,143,132,122,131,120,119,119,117,131,120,121,128,127,112,145,115,127,112,121,132,127,122,126,111,109,118,121,108,119,121,126,117,116,111,121,100,116,114,92,117,114
108,122,137,121,119,123,120,139,130,121,145,132,123,118,106,102,131,121,115,117,112,123,122,132,113,122,126,133,123,110,115,123,114,121,111,112,113,126,112,108,117,121,117,107,119,85,124,135,122,121,138,125,123,115,109,114,113,120,124,115,97,161,123,123,129,121,122,123,107,158,113,124,118,120,119,117,116,154,121,122,119,120,117,124,124,126,115,121,119,122,129,124,112,111,115,113,111,122,115,129,101,111,118,126,116,121,111,110,109,104,115,117,115,122,128,119,117,123,121,120,127,121,163,153,116,129,121,122
117,121,116,122,123,123,119,109,125,121,115,111,122,122,124,130,116,121,124,134,121,127,123,120,123,122,115,119,118,123,116,124,135,121,120,119,129,101,115,137,113,121,123,121,112,136,122,111,123,122,130,127,137,124,123,136,122,121,114,117,112,125,109,117,134,120,118,113,116,132,123,128,109,122,115,128,110,145,129,141,120,122,132,115,75,94,111,89,137,121,107,123,132,130,126,132,121,122,134,127,126,128,118,120,111,122,116,116,116,128,119,107,134,121,105,125,127,125,124,124,122,122,126,131,120,95,119,132
120,122,122,119,123,111,125,131,135,121,119,123,124,137,123,122,109,122,130,117,113,103,116,118,123,122,112,107,133,154,126,121,105,122,127,125,123,112,117,108,133,122,127,127,143,46,112,94,129,121,129,111,122,103,151,169,125,121,120,121,131,128,122,124,126,122,136,118,102,121,111,112,109,122,122,116,120,115,117,117,120,122,117,124,120,113,114,106,136,121,108,119,121,121,127,126,115,121,118,116,132,139,117,110,122,121,117,118,129,128,120,132,108,123,111,119,122,125,122,113,118,122,132,127,120,111,113,107
119,121,114,119,122,118,121,120,119,121,114,117,109,117,119,122,123,122,121,118,117,122,117,106,118,122,123,124,119,123,123,129,139,121,119,119,139,58,118,116,97,122,127,128,131,87,116,118,115,122,117,110,115,100,121,109,136,121,121,139,125,124,126,141,111,122,100,106,75,88,105,95,128,122,158,130,133,117,120,143,116,122,132,130,136,128,120,132,109,122,115,115,130,87,107,100,135,122,123,133,115,125,129,130,110,122,125,122,121,120,116,119,127,121,127,116,131,84,118,123,115,122,116,119,117,121,118,93
111,122,130,127,120,127,122,130,125,121,121,121,109,129,116,122,112,121,117,116,101,101,119,126,134,121,129,121,105,140,118,124,109,122,119,120,139,110,122,117,114,121,117,123,114,129,117,101,143,121,120,124,127,131,126,125,111,122,113,123,118,119,116,121,116,122,111,121,128,117,125,123,132,122,143,133,125,119,118,125,120,122,119,118,122,104,122,122,123,122,122,128,115,116,127,130,121,121,111,118,118,122,116,109,114,121,125,120,120,117,118,116,126,121,113,125,121,127,122,114,120,122,138,114,117,102,114,124
117,122,114,128,127,125,116,114,122,121,115,116,121,113,120,115,122,122,157,126,133,147,122,126,125,122,128,121,155,89,112,104,117,121,114,121,120,149,127,120,128,122,122,125,103,107,125,130,122,121,118,118,115,131,124,120,111,121,122,124,141,112,123,114,129,121,130,123,116,125,123,125,129,122,114,119,128,129,122,110,92,122,116,125,127,125,129,152,135,120,124,123,128,123,126,117,132,120,115,115,120,118,117,127,112,122,130,128,114,137,121,119,117,121,124,118,120,118,116,113,110,121,114,122,121,118,120,116
131,121,118,122,122,126,120,118,136,121,117,123,125,120,119,127,113,121,121,111,118,103,123,125,113,121,111,129,119,122,123,115,119,121,105,104,117,116,118,114,130,122,181,146,124,155,115,117,128,122,88,111,114,102,129,136,119,121,123,120,104,143,121,106,109,122,116,121,120,100,127,136,121,121,126,128,127,128,127,120,120,122,118,119,116,119,115,110,125,121,121,127,121,130,124,124,117,122,119,119,122,127,121,126,117,121,123,127,129,119,119,91,123,122,132,136,135,93,122,126,126,121,138,125,118,159,121,123
119,121,130,131,119,139,116,129,104,122,111,120,120,70,110,101,119,121,120,117,116,158,124,128,120,122,156,135,134,127,124,119,120,121,111,117,114,115,118,110,129,122,116,138,122,115,112,117,110,122,124,113,123,115,120,120,124,121,119,131,119,112,118,125,129,121,126,117,117,130,125,123,140,121,128,125,92,102,117,129,90,123,115,119,133,138,117,127,130,122,117,121,123,119,123,109,134,121,113,120,134,93,118,135,116,122,132,121,128,126,120,112,115,122,120,123,130,94,118,101,142,121,122,120,117,112,122,141
113,122,167,142,145,128,134,154,120,121,110,121,117,103,114,108,132,121,127,119,122,127,124,127,120,122,118,116,120,108,122,143,117,122,110,124,118,131,127,105,122,121,125,120,129,118,124,127,147,121,126,115,121,115,119,119,115,122,106,105,118,127,125,128,106,122,131,143,117,136,123,124,121,121,101,111,103,116,113,103,124,122,107,116,126,128,121,119,130,122,126,141,139,128,123,136,109,121,127,119,102,130,114,98,115,122,123,122,119,116,134,127,120,122,117,116,126,99,117,114,121,122,124,125,119,134,124,113
113,121,112,123,129,96,118,105,126,122,110,120,126,123,123,127,114,121,153,132,120,107,112,114,144,121,106,117,124,132,123,126,109,121,107,121,131,111,124,119,129,122,144,129,128,139,123,126,102,122,120,104,117,120,120,109,139,121,124,128,129,125,129,130,129,122,120,125,112,113,117,129,112,121,115,114,92,172,116,118,115,121,108,117,114,112,120,112,126,120,130,126,134,109,118,124,129,121,118,128,125,129,123,137,89,122,119,125,120,113,113,98,132,121,98,111,111,118,115,115,117,121,176,139,97,84,130,168
114,122,112,119,131,121,117,111,131,121,120,123,119,109,115,127,114,122,119,116,122,130,120,113,126,122,119,119,109,130,119,114,119,121,118,122,142,84,117,117,120,122,133,125,132,128,128,122,127,121,129,136,116,111,122,122,118,121,106,110,117,112,123,119,115,122,140,125,125,104,112,118,130,122,106,118,122,119,124,120,117,122,132,111,110,132,118,112,111,122,113,122,114,61,116,116,127,121,131,146,143,146,120,126,125,121,147,126,109,113,119,121,132,120,110,114,116,165,117,129,105,123,110,104,107,104,121,122
120,121,127,128,117,128,120,106,124,121,116,116,103,108,119,125,126,121,111,117,116,121,124,130,117,121,136,121,125,124,123,129,119,121,116,132,118,129,122,118,113,121,110,115,114,120,111,104,113,122,126,125,113,127,127,121,128,121,121,121,137,113,120,121,116,121,121,115,114,141,110,110,127,121,133,126,120,72,125,137,115,122,123,122,139,129,128,130,114,121,115,126,115,126,117,108,123,122,127,132,115,133,124,125,122,121,136,126,109,116,117,118,124,121,111,124,133,119,127,118,120,122,117,119,115,143,126,133
117,122,134,138,138,121,121,117,131,121,108,127,115,115,123,118,122,122,114,105,114,105,118,126,101,122,112,132,122,135,127,114,124,121,116,128,105,109,117,108,114,122,119,118,104,107,116,127,132,121,115,115,119,135,122,131,107,122,103,123,129,123,118,93,121,122,141,130,122,122,121,122,147,121,114,116,104,102,123,139,100,121,119,118,113,97,124,103,123,121,126,131,124,124,122,116,126,122,118,119,119,122,122,131,126,122,127,124,124,121,122,121,107,122,123,122,117,121,121,111,128,121,117,124,125,114,121,120
126,121,117,125,116,157,118,121,121,122,110,113,115,127,125,131,123,121,183,149,131,137,129,123,122,122,110,124,120,109,119,117,118,121,109,117,121,125,120,126,119,121,119,116,148,102,118,127,123,122,134,122,108,117,126,120,119,122,125,126,127,123,118,105,118,121,116,115,119,116,118,116,122,121,126,128,119,131,120,119,118,121,114,118,121,131,122,118,126,121,123,123,119,136,119,122,139,121,122,124,118,125,119,116,108,122,130,122,115,116,120,127,124,121,112,116,121,123,121,118,115,122,128,118,111,120,121,113
121,121,118,119,125,124,121,124,119,121,124,122,112,114,120,120,123,122,116,122,129,120,120,122,126,122,127,119,122,119,118,118,104,122,115,117,120,133,137,154,134,121,127,121,121,115,115,112,118,121,124,123,126,124,121,128,120,121,112,118,118,123,124,107,118,121,128,124,105,141,118,121,107,121,125,124,122,110,120,124,119,121,120,119,121,129,119,110,122,122,124,115,115,112,119,119,123,121,134,131,134,117,119,121,121,121,122,123,122,113,122,130,117,122,134,125,119,121,122,116,121,122,112,121,115,105,116,117
122,122,118,123,118,122,122,120,111,121,123,125,103,122,118,117,123,121,119,121,121,124,122,120,130,121,126,122,121,122,120,124,117,121,121,120,115,120,120,127,106,122,119,120,122,118,116,105,126,121,116,123,136,117,119,112,129,122,125,123,121,124,128,145,113,122,120,122,120,120,122,124,124,121,116,120,121,90,120,120,125,121,125,121,122,125,121,123,112,122,115,123,118,130,122,116,126,121,119,124,131,126,122,124,127,121,121,122,115,136,120,123,119,121,127,124,120,121,123,120,123,121,127,127,124,115,122,118
124,122,120,117,120,118,118,121,107,121,118,122,117,115,121,117,120,121,116,115,120,119,127,119,129,121,129,124,119,123,121,122,117,122,120,112,121,102,117,119,122,122,120,121,132,117,117,119,119,122,117,120,120,129,122,121,122,121,123,123,119,119,123,120,119,121,124,120,118,105,120,119,126,121,122,125,122,122,122,122,113,122,124,122,127,127,120,119,121,121,120,121,119,117,120,118,122,122,119,125,127,127,121,122,122,122,125,118,121,124,122,120,121,122,114,123,121,122,121,122,118,122,129,124,122,121,124,119
119,125,124,116,121,121,119,118,128,121,117,120,119,120,120,121,118,121,120,133,123,121,120,121,122,122,115,111,119,119,130,121,125,122,127,126,125,125,130,123,115,121,115,121,120,124,123,118,122,122,142,110,122,125,147,118,122,121,116,122,120,110,133,117,115,121,119,120,122,119,132,119,124,121,121,116,119,121,129,123,119,120,112,113,118,119,117,117,122,121,129,129,130,128,142,122,121,121,130,125,117,118,99,119,118,122,110,112,119,116,121,118,120,122,126,130,122,124,123,122,118,121,117,116,129,111,108,118
122,121,122,129,129,123,113,121,122,122,122,117,119,119,120,121,119,122,119,121,123,121,126,117,122,122,118,120,123,110,85,124,119,121,128,121,120,122,110,116,120,121,118,115,124,117,169,118,122,122,112,132,126,134,134,128,122,122,129,121,119,109,144,121,119,120,122,125,127,113,170,117,116,122,109,118,117,114,145,119,122,121,131,137,125,126,115,115,123,122,123,115,122,121,114,121,119,121,124,129,121,117,18,120,120,122,117,116,121,117,0,123,119,121,119,116,119,113,0,114,123,122,129,139,128,133,0,138
118,123,122,118,117,108,0,116,119,120,120,121,124,134,9,133,123,139,116,121,117,119,45,118,123,164,128,122,119,122,89,122,117,152,117,120,122,119,232,116,121,116,116,127,122,119,241,118,122,118,122,123,123,106,242,121,122,126,119,121,120,120,242,119,120,113,123,118,119,118,49,121,119,104,119,122,120,122,0,122,123,105,125,117,119,117,44,119,117,93,120,122,122,131,142,125,119,107,119,119,120,118,141,119,119,115,127,132,125,124,145,120,122,141,119,119,119,118,53,119,120,129,120,121,121,119,112,119
120,128,119,122,123,123,128,122,121,122,120,121,121,121,118,119,119,149,120,122,121,121,121,120,120,142,117,121,121,127,122,120,120,138,125,122,121,122,123,120,121,156,119,121,121,122,122,122,119,139,124,121,121,121,118,120,121,130,119,122,120,123,137,121,120,177,122,123,120,120,110,119,122,242,133,122,121,125,123,123,120,241,123,124,122,121,122,120,121,241,118,124,120,119,119,121,119,240,120,117,122,122,122,120,119,242,119,123,122,121,121,119,121,240,119,120,121,121,122,119,117,240,115,117,121,121,128,119
125,241,127,123,122,123,130,125,119,241,117,122,121,119,120,118,119,241,118,122,121,121,119,119,122,242,118,121,121,121,117,121,120,240,119,122,122,122,119,121,119,168,120,121,121,121,119,119,121,134,121,121,120,120,123,120,123,126,121,121,119,119,121,121,119,123,120,121,119,120,123,120,121,123,121,121,119,120,122,120,123,123,121,122,118,119,120,121,119,122,121,122,119,120,115,119,121,123,122,125,114,123,123,122,125,123,121,121,119,120,124,122,117,122,121,122,122,120,120,119,121,122,121,121,124,118,118,119
121,122,121,123,122,121,120,121,120,122,120,122,120,121,124,121,121,122,122,119,121,121,113,123,121,122,123,123,122,122,124,120,121,122,120,121,119,119,118,120,121,122,122,123,123,123,126,124,121,122,120,121,122,118,110,118,120,122,117,121,122,121,123,120,121,122,121,119,121,120,119,120,121,121,120,122,121,121,121,121,120,122,121,122,122,121,121,120,120,122,122,121,120,121,121,120,122,123,121,122,122,121,122,121,121,121,120,122,121,121,120,121,120,122,120,121,121,121,121,120,121,122,121,122,120,121,122,121
121,122,122,122,123,122,119,120,121,121,121,121,122,121,120,120,122,121,121,122,123,123,123,122,119,122,121,122,123,122,119,120,120,122,121,122,122,120,121,120,120,122,121,121,121,121,122,119,120,122,121,122,122,120,121,119,120,122,122,122,121,120,118,120,121,122,122,121,122,122,119,120,122,122,121,121,121,120,121,120,119,121,120,122,121,120,119,119,121,121,120,122,121,121,124,121,121,122,121,121,120,121,124,120,121,122,121,122,121,121,119,122,120,121,121,120,121,122,118,118,121,122,120,123,121,122,124,122
119,121,122,122,121,121,122,121,120,122,119,121,121,121,122,120,120,122,120,120,120,119,120,119,123,122,122,122,121,121,123,122,120,121,121,123,122,120,120,121,121,122,121,121,121,121,122,120,121,122,121,121,121,121,124,121,120,121,121,122,121,121,121,120,119,121,121,121,121,121,129,119,121,122,122,122,122,120,107,120,123,121,121,122,122,121,122,120,119,122,121,121,121,121,114,120,122,121,120,122,122,124,130,124,121,122,121,121,120,120,119,120,120,122,121,122,121,121,120,120,120,121,121,122,122,122,122,119
120,122,121,122,121,120,121,119,120,121,121,121,121,121,119,122,120,121,120,122,121,121,122,120,121,122,122,121,121,122,122,121,122,121,119,121,121,121,121,120,119,121,121,122,122,121,121,119,121,122,122,122,120,121,123,120,122,122,122,123,121,120,120,120,120,122,121,121,121,121,122,122,121,122,121,121,120,120,122,120,121,122,121,122,122,122,122,122,121,122,120,121,120,120,120,120,121,121,120,122,121,120,112,119,119,121,121,122,122,124,135,121,122,122,121,122,121,120,111,121,121,121,121,122,121,121,115,119
120,122,122,122,120,121,125,120,121,122,121,121,121,120,116,120,119,121,120,122,121,122,125,119,121,122,122,122,120,120,119,119,121,122,122,122,121,121,121,121,122,121,121,122,121,121,123,121,120,122,120,121,121,121,122,120,120,122,120,121,121,121,121,119,122,122,121,122,121,122,123,121,121,121,121,122,122,121,124,120,120,121,120,122,121,122,122,122,119,121,121,122,122,121,122,119,122,122,121,121,121,121,123,121,119,121,122,122,122,121,120,122,122,121,121,123,122,121,120,120,120,122,121,121,121,121,120,121
121,121,121,122,121,119,120,119,121,122,121,121,121,123,121,120,121,122,121,121,120,121,115,120,120,122,121,122,120,119,117,119,122,122,120,121,121,120,120,121,121,122,121,122,122,120,123,120,120,121,121,122,122,123,117,120,120,121,121,122,121,121,122,120,121,122,121,122,121,120,120,121,121,121,120,121,121,121,119,119,120,122,120,121,121,121,120,120,121,121,120,122,121,121,121,121,121,113,121,121,121,121,122,121,121,102,120,121,121,121,123,121,122,103,121,122,121,120,121,120,120,101,121,122,121,121,122,119
120,102,121,121,121,121,124,119,120,103,119,122,122,121,121,120,121,105,122,122,121,122,121,120,121,104,121,121,120,119,110,118,122,106,122,122,122,128,142,126,121,107,121,122,121,120,112,118,121,107,122,122,121,122,124,120,120,107,122,121,120,121,120,120,121,106,121,121,121,121,119,120,122,108,120,122,121,121,122,121,122,109,122,121,120,121,121,121,120,108,120,121,121,121,123,121,119,109,121,122,122,121,121,119,121,109,121,122,121,121,121,119,120,110,122,121,121,120,121,120,121,109,121,122,122,122,122,120
121,112,122,122,122,123,127,123,118,114,121,121,121,120,119,119,122,111,120,122,121,121,120,119,119,111,121,122,122,121,122,119,120,112,121,122,122,121,120,120,120,111,121,122,121,120,122,121,121,112,121,121,121,121,121,120,119,112,121,121,121,122,117,120,120,114,120,121,121,121,123,121,120,111,120,121,120,120,121,120,120,111,121,122,123,124,126,123,120,114,121,121,121,120,122,120,120,111,120,123,121,122,125,120,120,115,121,122,121,120,121,120,120,113,120,121,121,121,121,120,123,115,120,121,121,121,121,121
118,113,121,122,122,122,122,120,119,114,120,121,121,121,122,120,122,115,121,121,121,122,120,120,121,115,120,122,121,121,121,121,120,117,120,122,122,122,122,121,120,115,121,122,121,121,122,121,120,114,120,121,121,122,123,120,121,116,121,123,122,121,118,120,120,116,121,122,122,122,123,121,120,116,121,121,120,121,122,120,121,116,120,121,121,121,123,121,120,119,122,122,121,121,115,121,121,116,121,122,121,121,122,120,123,116,121,122,121,121,118,121,118,119,121,121,121,121,122,120,121,117,120,121,121,121,123,120
122,115,122,122,121,122,121,122,122,115,121,122,122,121,123,121,120,116,121,122,122,121,121,119,122,118,120,121,121,122,122,123,122,117,120,121,120,121,122,121,119,114,119,121,121,121,123,120,120,117,121,122,121,121,122,121,121,117,121,121,121,121,122,121,119,117,121,122,121,121,121,120,121,118,120,121,121,121,122,121,121,118,121,123,122,121,119,119,121,118,121,121,121,121,120,119,120,118,120,123,121,120,119,120,119,117,120,122,121,121,121,120,121,117,121,122,121,121,122,121,121,119,122,122,121,120,120,121
120,118,119,121,121,121,123,120,121,117,121,122,120,120,121,121,119,117,121,122,121,121,123,119,120,119,121,122,121,120,121,120,122,120,121,121,121,121,121,120,119,120,120,121,120,121,125,120,121,118,121,122,121,121,115,120,121,119,121,121,121,122,121,120,120,119,120,122,121,119,117,118,121,121,122,122,121,122,127,121,120,117,120,121,121,121,122,121,122,120,122,123,122,120,118,121,120,119,120,123,122,121,122,120,121,120,120,121,121,121,122,120,121,118,121,121,120,121,122,120,122,119,121,122,122,121,122,121
121,119,121,122,121,121,120,120,120,118,120,122,121,121,123,121,121,118,121,121,120,121,123,120,120,120,122,122,121,121,120,121,121,119,121,122,121,120,121,120,122,120,121,122,120,120,120,121,119,119,122,122,121,122,125,121,121,120,121,122,121,120,117,120,120,119,121,121,121,122,123,121,120,118,120,122,121,121,123,121,121,119,121,121,120,121,121,120,121,121,121,121,121,121,121,121,121,120,120,122,121,121,123,121,121,120,123,122,122,121,118,123,121,119,121,122,121,122,123,119,121,121,121,121,120,120,119,121
120,119,121,122,122,121,122,119,121,122,121,121,121,121,119,121,120,118,120,122,121,121,124,121,120,119,123,122,121,121,120,119,121,120,121,121,122,125,119,120,121,121,121,122,121,121,122,121,121,121,121,121,121,121,122,120,121,121,121,122,121,121,121,120,120,119,120,122,122,121,121,120,120,119,121,122,122,121,124,120,122,121,121,121,120,121,121,121,120,120,120,122,122,122,123,121,119,120,121,122,121,122,121,120,120,121,121,122,121,121,121,120,121,121,120,121,121,121,120,120,119,118,120,122,121,121,121,120
120,120,119,122,121,120,121,120,120,120,120,120,120,120,122,120,121,119,120,122,121,121,122,121,120,119,122,123,121,121,121,122,121,121,121,121,121,121,121,119,121,121,123,121,121,121,122,121,121,120,120,122,121,122,119,120,120,121,121,122,120,120,124,120,120,120,121,122,121,120,118,120,122,121,120,121,121,121,124,121,121,120,122,122,121,121,122,121,121,120,121,122,121,121,122,121,121,120,121,122,121,121,121,121,120,119,120,121,121,121,122,120,119,120,121,122,122,121,122,120,120,120,121,122,121,121,120,120
120,121,122,122,121,121,121,120,121,121,121,122,122,121,121,120,119,120,121,122,122,121,123,119,121,121,121,122,121,120,119,120,121,121,121,122,121,121,121,121,120,122,121,122,121,120,121,119,119,120,121,122,121,121,123,119,123,121,122,123,121,121,121,121,121,121,123,122,121,122,126,121,120,120,120,121,121,121,121,120,120,119,119,121,121,121,121,119,121,122,121,121,121,121,120,120,121,120,121,122,122,121,122,121,119,120,121,122,121,121,121,119,121,120,120,122,121,121,121,119,122,122,121,122,121,121,121,122
119,120,120,121,120,120,117,119,119,120,121,122,123,124,127,121,122,119,120,122,122,120,117,120,121,121,121,122,122,120,121,120,121,121,122,122,120,121,120,120,120,119,121,122,121,121,120,121,120,121,121,122,121,120,122,120,122,121,121,122,121,121,121,121,120,120,121,123,122,122,122,120,121,121,121,122,120,120,121,119,121,122,120,121,121,121,119,121,121,121,120,121,121,121,122,120,122,121,121,123,121,120,120,122,119,122,121,122,121,120,119,119,120,121,121,122,122,121,123,118,120,122,121,122,122,121,121,120
121,121,122,121,120,120,120,121,121,121,121,122,121,121,122,120,121,122,121,121,121,121,121,121,120,120,121,122,122,121,121,120,120,121,122,122,122,121,121,120,121,120,121,121,121,121,122,121,120,121,120,122,121,122,124,120,120,120,120,121,121,121,120,120,122,122,121,121,122,121,121,121,120,122,121,122,122,121,121,120,120,120,122,123,122,122,122,119,121,121,121,121,120,120,118,120,121,122,120,122,120,121,120,121,121,121,121,121,120,120,121,119,121,120,121,121,120,121,122,121,118,121,121,121,121,121,122,121
123,122,121,122,122,121,121,120,120,121,121,122,121,121,120,120,120,121,121,121,121,121,122,121,120,120,121,122,122,121,122,120,121,121,120,121,121,121,121,121,121,121,121,121,121,121,122,121,121,123,122,122,120,121,122,120,121,121,121,122,121,121,123,121,120,121,121,122,121,120,120,120,121,122,121,121,121,121,121,121,122,120,121,122,121,121,122,120,119,121,121,122,121,121,122,121,121,122,121,121,121,120,119,120,120,120,118,121,121,122,127,121,122,123,123,122,121,120,118,121,121,122,120,122,122,122,122,119
121,122,120,122,120,120,118,120,120,119,119,122,121,120,119,120,120,123,122,123,121,121,121,120,121,122,121,122,122,122,123,120,121,121,122,122,120,121,119,120,120,121,120,121,121,120,123,120,121,121,121,122,121,121,116,121,119,120,120,121,121,121,123,120,121,121,121,122,121,121,123,121,121,121,121,122,121,122,120,120,120,119,120,122,121,121,121,120,121,122,121,121,120,120,122,120,120,121,122,122,122,121,123,120,121,121,120,123,121,121,121,122,121,120,119,120,120,120,119,119,121,119,120,122,121,122,129,121
121,121,121,123,121,120,117,121,120,120,120,122,121,121,119,119,120,121,121,122,121,120,120,120,121,121,120,121,121,121,123,121,122,123,122,123,122,121,120,122,119,118,121,122,121,122,124,120,118,119,121,122,121,121,122,120,119,121,120,121,121,121,119,119,122,121,119,122,122,121,121,120,120,120,120,121,121,121,121,121,120,121,121,121,121,121,122,120,121,122,122,123,120,120,118,120,119,120,121,122,121,121,122,119,121,121,121,121,121,121,119,120,120,120,121,122,120,121,121,120,120,121,119,122,121,121,122,120
120,122,121,122,121,121,121,120,121,119,120,121,120,121,116,120,121,122,121,122,121,120,122,120,121,122,120,121,121,121,120,121,120,121,121,121,121,121,126,121,121,121,123,122,122,121,122,120,121,123,122,122,121,121,115,121,120,122,120,122,121,122,124,121,122,121,121,121,120,121,124,121,121,121,122,122,122,121,122,120,120,121,122,122,121,121,118,119,120,122,120,123,121,120,109,119,121,122,121,122,121,121,131,121,122,122,121,121,119,119,117,120,119,119,120,121,121,121,119,120,119,120,121,122,121,120,121,120
121,120,121,122,121,121,121,120,119,120,121,122,122,121,121,120,121,121,121,121,121,121,122,120,121,123,120,122,121,121,121,121,120,122,122,122,120,120,121,121,121,122,120,121,121,121,122,121,120,121,121,122,121,121,122,120,120,120,121,122,121,121,120,120,121,121,121,122,120,121,123,120,121,121,121,121,120,121,123,120,121,122,121,123,121,121,116,121,121,122,124,123,121,121,128,121,121,122,121,121,121,121,121,121,120,121,120,121,121,120,112,119,120,122,120,122,122,122,125,120,121,121,122,122,121,121,124,121
121,122,121,122,121,121,119,119,120,123,121,122,121,121,119,120,120,122,121,121,121,122,124,121,122,121,121,121,120,121,120,120,120,120,120,121,121,121,123,122,118,120,120,121,121,121,122,120,123,121,120,121,121,121,122,121,120,122,121,121,121,121,119,119,119,118,121,122,121,121,121,120,120,121,121,122,121,122,122,119,120,122,121,122,122,121,122,120,119,122,121,122,121,121,120,119,120,120,120,121,121,121,117,120,120,122,121,122,121,122,123,121,120,121,120,121,121,121,121,121,120,121,122,124,120,120,122,120
121,122,121,122,121,120,122,121,121,122,122,122,121,121,123,120,120,119,119,121,122,121,120,119,119,121,122,122,121,121,123,120,121,121,120,123,122,121,119,120,120,122,121,122,122,121,122,121,119,120,120,122,121,122,128,120,121,122,121,122,122,120,118,119,121,121,121,122,121,122,123,122,119,120,121,122,121,121,119,120,120,122,121,122,121,120,123,120,122,121,122,123,121,120,112,120,118,120,121,122,121,121,120,120,121,121,121,122,122,122,122,119,122,122,122,122,121,121,124,121,120,120,120,122,121,121,118,119
120,121,121,122,122,121,121,119,120,121,121,122,120,119,118,119,121,122,121,122,122,122,121,122,120,121,121,123,121,121,122,120,121,120,120,122,121,121,121,120,120,122,124,123,122,121,122,121,121,120,121,122,121,120,118,120,121,121,122,123,121,119,121,120,120,120,120,121,121,122,119,120,120,123,123,123,122,121,119,119,121,123,123,121,120,120,121,120,120,122,121,121,121,122,129,121,120,121,121,122,120,120,120,120,121,121,121,122,122,121,120,120,119,121,120,121,121,120,121,120,123,122,122,122,121,121,122,121
119,121,121,121,120,120,122,121,120,121,121,121,120,121,124,120,121,121,122,122,121,121,121,119,121,121,121,122,121,120,120,120,122,121,121,121,121,121,120,121,120,122,120,122,121,122,126,120,122,121,122,122,121,121,117,120,120,122,121,121,120,121,122,120,119,121,120,121,121,121,118,120,121,122,122,122,121,120,121,120,120,120,121,122,121,121,124,120,121,121,120,121,121,120,117,120,121,122,121,121,120,121,121,121,121,121,121,120,120,120,119,120,121,121,120,121,121,123,128,121,120,122,125,122,121,121,121,120
120,119,120,122,122,121,118,119,121,123,120,121,120,121,119,120,122,121,121,122,121,122,123,121,121,121,121,121,120,120,117,120,120,122,121,122,121,122,124,120,120,122,120,122,121,121,120,121,121,120,120,121,121,121,122,120,120,122,121,122,121,120,122,119,121,122,121,122,121,121,121,121,121,122,121,121,121,121,121,121,119,121,120,121,121,121,122,120,120,121,121,122,122,120,120,119,122,123,120,121,121,122,120,121,122,123,120,121,121,121,121,121,121,123,121,121,120,120,119,120,120,123,120,122,121,122,125,120
120,121,121,122,122,121,122,120,121,122,120,122,121,121,118,120,122,122,121,121,121,121,126,121,120,122,122,122,121,121,120,120,121,121,121,122,121,121,119,119,120,123,120,121,121,121,125,122,121,121,121,122,121,121,121,119,119,121,121,121,121,121,121,119,122,120,120,121,121,120,121,120,121,121,121,121,121,121,120,120,120,122,120,122,121,121,123,122,119,119,120,121,121,121,120,120,121,120,120,122,122,122,119,121,120,122,122,122,121,120,121,119,120,120,120,121,120,120,124,120,119,121,120,122,122,121,120,120
121,123,121,121,120,121,123,120,121,122,121,122,121,121,127,120,120,121,122,122,120,120,117,119,120,120,121,121,121,121,121,119,121,122,121,122,121,122,123,122,121,122,122,121,121,121,124,121,121,122,121,123,121,121,119,121,121,121,121,122,121,122,121,120,121,122,120,121,121,120,121,121,119,119,120,121,122,122,122,120,121,122,122,123,121,120,120,120,121,122,121,121,120,121,121,121,120,122,121,122,122,121,118,120,120,122,120,122,121,121,123,120,121,121,119,120,120,121,119,120,120,119,123,123,122,122,123,120
121,122,121,122,122,121,120,119,120,121,121,122,121,120,122,121,120,121,122,123,121,121,118,119,121,122,121,122,122,122,129,119,120,122,120,123,121,120,121,121,120,119,120,122,121,121,122,119,121,121,121,123,121,121,120,121,121,121,121,121,121,121,123,122,119,122,121,121,120,120,119,119,121,121,120,121,121,121,121,121,120,122,121,122,120,120,122,120,120,122,121,122,121,121,122,119,120,121,121,122,122,121,120,121,122,122,121,121,121,122,125,120,121,122,122,122,120,120,121,120,120,123,121,123,121,121,124,120
120,121,122,122,121,120,121,119,121,122,122,121,120,120,120,121,121,123,120,121,121,121,122,120,119,120,120,121,121,122,127,122,121,121,120,121,121,121,120,120,120,120,123,122,121,121,120,120,121,122,121,122,121,121,120,120,121,121,122,121,120,121,123,120,121,123,124,121,120,120,119,121,121,121,121,121,121,121,120,120,120,121,120,122,122,122,123,121,121,121,120,121,120,120,119,121,120,121,122,120,121,121,122,120,121,122,120,121,121,121,122,121,121,122,121,121,121,121,121,120,120,121,121,123,122,121,121,121
121,122,122,122,121,122,122,121,121,121,120,121,121,121,120,121,121,123,122,123,121,120,121,121,120,119,120,122,122,121,119,119,121,123,121,122,120,121,125,120,120,122,122,121,120,120,120,121,121,123,121,123,122,121,122,121,121,120,121,122,121,120,121,120,120,122,122,122,122,120,122,120,120,121,121,122,122,121,120,120,120,121,121,122,121,121,122,120,120,121,121,121,120,121,121,120,120,121,121,122,122,122,120,121,121,121,121,122,121,120,122,120,120,122,121,122,121,121,121,120,120,121,121,122,122,121,120,120
120,121,121,121,121,121,118,119,121,121,121,123,122,122,126,121,120,121,120,122,121,121,124,121,121,121,121,122,121,120,118,120,121,120,120,122,121,121,122,121,120,123,121,121,120,120,118,119,120,120,120,122,121,122,126,120,120,122,121,121,120,120,116,119,120,121,120,121,121,121,124,120,120,121,120,121,121,121,121,120,121,122,120,121,121,121,120,120,121,122,120,122,121,121,119,121,119,121,121,121,121,121,122,120,120,120,121,121,121,121,122,120,121,122,122,122,121,121,121,121,120,119,119,122,121,121,123,120
119,121,121,122,122,122,118,119,121,121,121,122,122,122,122,121,121,123,124,122,121,121,119,120,121,122,122,122,121,121,127,122,120,121,122,122,122,121,121,119,119,121,121,122,122,121,118,120,121,122,120,121,121,121,123,120,121,122,121,122,121,121,122,120,121,121,121,121,121,121,122,121,120,120,120,121,121,121,121,120,121,120,121,122,121,121,123,120,121,123,121,121,120,121,122,120,120,122,120,122,121,122,122,120,120,122,121,121,121,121,122,120,121,121,120,121,121,121,123,120,122,122,121,122,122,121,122,122
121,121,121,122,121,122,125,120,119,122,121,122,121,121,119,119,121,120,120,121,121,121,120,120,119,121,120,121,121,121,120,119,122,122,121,122,122,122,118,121,120,121,121,122,121,120,119,119,121,122,121,121,121,120,120,121,120,122,120,121,121,121,122,121,122,122,121,122,122,122,122,121,119,121,121,122,121,120,121,120,121,122,126,122,122,121,120,120,121,122,120,121,121,122,123,121,121,124,124,122,122,120,121,121,121,121,120,121,121,122,121,120,120,121,120,122,121,120,120,120,121,122,121,122,121,122,120,122
120,122,121,122,121,121,122,119,121,122,121,121,120,121,120,120,120,121,120,122,121,121,123,120,121,122,122,122,120,120,121,121,121,122,120,122,121,123,122,119,120,120,120,122,121,120,123,122,121,121,121,122,122,121,121,120,120,122,121,122,122,121,118,120,121,120,121,121,121,121,123,121,121,122,122,123,122,121,121,121,120,122,121,121,120,121,121,120,120,121,121,122,121,122,123,120,121,121,121,121,121,121,120,120,121,122,120,123,121,121,121,121,121,123,121,121,121,121,121,120,120,122,120,122,121,121,120,120
121,121,120,122,121,122,125,121,120,122,121,122,121,120,120,119,120,123,121,122,122,122,124,120,119,120,120,121,121,121,122,120,120,122,122,123,121,120,121,120,122,121,120,121,121,121,122,120,121,121,122,121,121,121,122,121,121,121,121,121,120,119,117,120,121,121,121,122,121,122,125,121,121,122,121,121,120,120,119,120,119,120,121,122,122,121,122,120,121,123,123,121,121,123,127,120,121,120,121,121,120,121,119,120,121,122,120,121,121,122,127,121,121,121,121,122,121,121,122,121,120,122,121,123,122,121,120,120
120,121,121,122,122,121,121,119,119,119,120,121,122,121,123,120,120,121,120,122,121,121,120,119,120,122,121,122,121,121,122,120,121,121,121,122,121,121,121,120,120,123,120,122,121,121,121,119,120,121,123,122,122,121,123,120,121,121,120,122,121,121,120,120,120,121,121,121,120,121,122,120,120,123,121,122,121,121,121,119,121,121,120,121,121,121,122,120,121,121,118,121,121,121,119,120,119,120,120,122,122,121,121,121,121,121,120,121,121,121,121,120,120,121,121,122,122,122,125,119,120,120,120,121,121,121,120,121
121,123,121,122,121,121,122,121,122,120,120,122,121,121,120,120,120,122,123,122,122,121,122,120,121,122,121,121,121,121,122,120,119,121,121,122,122,122,122,120,120,122,120,121,120,120,120,120,120,121,121,121,121,120,123,120,120,121,122,122,121,122,122,120,121,121,120,121,120,120,120,121,121,123,121,123,122,121,122,121,119,122,121,122,122,121,123,120,120,120,120,122,121,121,120,120,120,120,120,122,122,121,122,120,120,123,121,121,120,121,121,120,121,120,121,121,120,120,119,119,120,122,121,122,122,123,123,120
120,123,121,121,120,121,121,120,121,122,121,122,121,119,123,121,121,121,121,122,122,121,118,119,120,120,121,122,122,121,121,120,120,121,122,122,121,121,121,119,120,122,120,123,121,121,121,119,121,122,122,122,121,121,122,121,121,122,121,121,120,121,121,120,121,121,121,122,122,120,120,120,119,122,121,122,122,122,125,120,121,122,121,122,121,120,120,121,121,121,122,122,122,122,125,120,121,122,121,121,121,121,118,119,120,121,120,122,121,121,123,121,121,122,122,121,121,121,123,120,121,120,121,122,122,122,121,121
121,122,121,122,121,121,122,121,121,122,120,121,121,121,120,121,121,122,121,121,121,121,125,121,120,120,121,123,122,122,123,121,121,123,121,122,121,120,120,120,120,122,121,122,121,121,120,119,121,121,121,122,121,121,120,122,120,121,122,122,121,120,120,120,122,122,120,121,121,121,122,121,119,121,122,122,121,121,123,120,120,121,121,122,122,121,121,119,121,122,121,122,121,122,120,120,120,120,120,122,122,121,122,120,121,122,120,121,121,121,121,121,121,121,121,121,121,121,122,121,121,122,122,121,120,121,121,121
121,122,121,122,121,121,121,121,120,122,121,121,121,122,122,120,121,122,124,122,121,120,121,121,121,121,121,122,122,121,121,120,120,122,122,122,121,121,120,120,121,121,121,123,121,121,123,120,120,122,121,122,121,121,121,121,121,122,121,122,120,121,123,121,121,123,122,121,121,123,134,122,119,122,121,121,120,119,117,119,120,122,121,122,122,120,120,119,121,120,121,122,121,121,123,123,120,123,121,121,121,121,121,121,122,120,119,121,120,121,123,121,119,121,121,121,121,121,122,121,122,121,120,121,121,121,121,121
119,120,121,122,121,121,120,121,121,122,122,122,121,121,122,120,121,120,121,122,121,121,120,120,121,121,121,122,121,122,122,120,121,122,121,121,120,120,121,120,121,122,121,123,121,121,119,120,120,121,120,121,121,122,123,120,120,121,121,122,120,121,121,121,119,120,121,122,121,121,120,119,120,122,120,122,121,121,120,120,120,120,120,121,121,121,121,120,122,122,120,123,122,122,124,121,119,120,123,122,122,122,115,120,120,121,121,122,121,121,122,120,120,121,120,121,121,121,121,120,121,122,121,122,121,121,122,121
121,121,120,121,121,121,121,121,120,122,121,122,122,121,119,119,120,121,121,121,120,121,120,120,120,122,121,121,121,121,122,120,120,120,120,122,121,121,120,121,121,122,122,122,120,121,121,120,120,121,121,122,122,121,119,120,120,122,120,122,122,122,127,121,119,120,121,122,121,121,120,119,121,123,124,122,121,122,121,122,121,122,121,122,122,121,123,119,120,122,121,122,120,120,121,120,122,122,120,122,121,121,121,121,119,121,121,121,120,121,122,120,122,122,120,121,121,121,120,120,121,122,121,122,122,122,123,120
119,121,120,123,122,121,121,120,119,121,122,122,121,120,120,119,121,122,121,122,122,122,122,120,121,122,121,122,120,121,119,120,121,121,119,121,121,121,119,120,120,122,122,122,121,122,124,121,120,122,120,122,122,121,119,120,120,121,120,121,120,121,127,121,121,121,119,121,121,121,118,120,121,122,122,121,121,121,121,120,120,121,120,122,122,121,122,120,120,121,121,122,122,123,122,120,122,121,122,122,121,120,121,121,120,122,121,121,121,121,122,120,120,120,123,122,121,121,124,120,121,122,121,121,120,120,118,119
121,122,121,122,122,121,121,121,120,123,122,122,121,121,119,120,122,122,122,122,121,120,118,121,120,121,120,122,121,120,122,119,118,118,122,122,121,122,121,120,121,121,121,121,121,121,122,120,121,122,121,122,122,121,121,119,120,121,120,122,121,121,121,121,119,120,121,122,121,122,121,120,121,122,121,121,121,121,121,120,121,121,120,121,121,123,121,121,121,121,121,122,122,122,127,121,120,121,121,122,121,120,119,119,120,121,121,122,121,121,126,120,121,122,120,121,121,122,123,121,119,119,120,122,121,121,120,120
121,120,121,122,121,121,123,120,122,122,121,122,122,123,123,121,121,121,121,122,121,120,121,121,120,121,121,122,121,120,120,120,121,122,121,122,121,120,119,120,121,121,121,123,121,121,122,121,120,121,120,121,121,121,122,121,120,123,122,122,121,120,121,120,122,121,120,121,120,121,119,121,120,121,121,122,120,121,121,121,121,122,122,121,121,121,121,121,121,121,119,121,121,122,123,120,121,121,121,123,121,121,117,121,121,122,122,122,121,120,121,121,120,120,121,122,122,121,122,120,121,120,121,122,121,120,121,120
121,122,121,122,121,120,120,120,121,123,121,121,120,121,121,120,121,122,121,122,122,122,123,121,121,121,121,122,121,121,121,121,120,122,120,121,121,121,121,121,121,122,121,121,120,121,122,120,121,121,121,122,122,121,119,121,120,120,120,122,121,122,124,120,120,122,120,122,122,121,121,121,120,122,121,122,121,121,120,119,121,123,122,122,120,121,122,121,120,122,121,122,121,120,120,119,120,121,121,122,121,121,120,121,119,120,120,122,121,121,121,118,122,122,120,121,120,121,121,120,122,123,122,122,122,123,122,122
119,120,121,122,121,121,121,120,122,121,120,121,121,121,121,121,122,122,121,122,121,122,122,121,120,122,122,122,121,121,121,120,121,122,120,121,121,121,122,121,120,121,121,122,121,121,122,120,121,121,121,121,121,121,122,121,120,122,121,122,121,121,121,120,121,122,122,122,121,121,121,120,120,120,120,121,121,121,121,119,119,122,122,122,121,121,122,120,120,121,121,122,122,121,120,120,121,122,122,122,121,121,121,120,122,122,121,122,121,121,121,121,120,122,121,122,121,121,122,120,119,120,120,121,121,121,120,120
121,123,121,122,122,121,121,121,121,122,120,122,121,121,122,120,121,121,120,122,121,121,121,121,120,121,121,122,122,120,119,119,120,122,120,122,121,121,125,121,121,121,120,121,121,121,121,120,120,120,121,121,121,121,121,120,120,122,121,122,121,121,122,120,122,121,121,122,122,122,123,121,119,122,121,121,121,121,123,120,121,121,120,122,121,121,121,120,120,120,122,122,121,121,120,121,119,121,120,122,122,121,122,120,120,122,123,121,120,120,123,120,122,122,121,121,120,120,118,120,119,121,121,123,121,121,121,120
121,121,120,121,121,121,123,120,121,122,122,122,121,121,116,120,121,123,120,121,121,121,122,121,121,122,121,122,121,123,122,120,121,120,121,122,121,121,121,120,120,122,119,121,121,121,120,120,120,121,122,122,121,121,122,120,121,121,121,121,120,120,120,120,122,122,121,120,120,120,120,121,119,122,121,122,121,120,123,121,120,120,121,122,121,121,121,119,121,121,120,121,121,121,121,121,121,121,121,121,120,120,117,120,120,119,121,122,121,122,122,121,121,121,121,122,121,121,122,122,120,123,122,122,121,121,123,119
121,121,121,122,121,121,121,120,121,121,120,122,121,121,121,121,119,121,120,122,121,121,123,121,121,123,122,122,121,120,119,120,121,122,121,121,120,121,122,120,121,122,121,122,121,121,123,121,120,122,121,122,121,120,118,119,120,122,121,121,120,121,119,119,120,120,121,122,122,122,118,120,120,121,119,121,121,121,121,121,119,120,120,121,121,122,123,120,121,122,120,122,121,122,123,120,121,122,122,121,120,121,122,123,121,122,121,121,121,120,122,120,122,122,122,122,120,120,119,120,119,123,124,122,122,122,123,121
120,120,120,121,121,121,121,120,122,121,121,122,121,120,120,120,121,122,121,122,121,121,121,121,120,121,121,122,122,121,120,121,121,120,121,122,121,121,121,120,120,122,122,122,121,120,121,120,119,120,121,122,121,122,122,120,120,122,121,121,121,121,121,120,120,122,121,122,121,121,122,120,120,121,121,122,121,120,119,120,120,120,121,122,121,122,123,121,120,123,122,122,121,122,121,120,120,122,121,123,121,121,121,121,121,122,121,122,121,121,122,119,120,123,123,122,122,122,121,120,122,121,120,122,121,121,119,120
121,123,122,121,121,121,121,120,118,120,120,121,121,121,122,119,120,123,124,122,121,121,121,119,121,122,121,121,120,120,120,120,121,121,121,122,121,121,121,120,121,122,121,122,121,120,122,120,118,121,121,122,122,121,120,118,122,122,121,121,120,121,121,121,120,121,121,122,122,121,121,119,120,122,121,122,122,121,121,121,120,121,121,122,122,121,121,121,120,121,120,120,121,122,122,120,120,121,120,121,121,121,122,120,121,121,121,122,121,122,122,121,120,121,121,122,121,122,121,120,120,120,120,122,121,121,121,120
120,122,121,122,121,120,121,120,121,122,121,121,121,121,122,121,119,121,121,121,121,121,121,119,121,122,120,121,121,121,122,121,121,123,121,123,122,121,119,119,119,121,120,121,121,122,122,120,121,122,121,122,121,122,121,120,120,120,120,122,122,121,120,120,121,121,121,122,122,121,120,120,120,120,121,122,121,121,122,120,121,121,121,122,122,121,124,121,120,122,121,122,122,120,108,120,120,120,121,122,121,121,126,120,121,121,121,121,121,121,121,121,121,123,121,121,121,121,122,121,120,121,121,121,121,121,120,121
120,121,121,122,121,122,124,120,121,121,121,121,120,120,120,120,120,122,122,122,122,121,121,120,119,120,120,121,121,121,122,120,122,122,121,121,121,121,121,121,121,121,120,121,121,121,120,121,121,122,120,121,121,121,123,120,121,121,120,121,121,121,122,121,122,123,121,121,120,121,123,120,119,121,120,121,121,121,122,121,120,122,121,122,120,120,123,119,121,121,121,122,122,122,121,120,121,121,122,122,121,121,121,121,121,122,121,121,121,120,121,120,120,122,120,121,121,121,119,120,120,120,121,122,122,121,125,120
121,122,121,122,120,121,117,120,121,122,122,122,121,120,120,120,119,121,121,122,121,120,120,120,121,122,121,121,120,121,123,120,121,122,122,122,121,121,124,121,121,122,121,121,121,120,120,121,120,121,121,122,120,121,121,120,121,120,119,122,121,121,122,120,121,122,122,119,122,123,122,121,120,120,119,125,121,121,122,120,121,121,120,120,121,121,122,120,121,120,121,121,121,120,120,120,121,122,121,122,121,121,121,120,121,122,122,122,121,120,123,120,119,121,120,121,121,120,120,121,121,121,119,119,120,121,121,120
121,122,123,131,121,121,123,119,122,122,120,118,122,121,121,122,120,121,120,121,121,121,117,120,120,122,121,122,121,120,121,119,122,122,120,118,121,121,118,120,120,121,123,122,121,124,123,123,123,122,121,124,121,120,119,122,119,120,119,117,121,121,127,117,119,120,120,118,119,119,129,116,123,121,120,131,121,115,85,126,123,125,122,128,123,133,192,122,118,121,122,121,112,112,140,114,122,122,125,116,135,121,107,125,121,118,119,120,120,118,68,118,124,123,118,112,134,133,112,137,125,126,125,130,121,120,128,126
114,121,117,116,130,123,77,103,122,115,121,107,121,132,153,143,125,122,121,158,131,110,104,123,114,120,130,104,116,104,24,84,134,124,112,113,155,165,224,164,104,119,109,98,102,113,128,95,124,114,127,116,128,115,68,105,121,117,116,120,124,134,166,120,136,124,135,138,119,128,150,167,110,114,121,117,130,120,144,101,120,109,120,134,122,122,132,117,119,112,115,126,122,123,104,116,125,116,120,126,133,138,203,118,119,79,122,124,118,119,79,109,115,43,120,120,125,91,112,108,140,0,128,129,132,137,94,144
108,0,133,117,118,127,109,106,115,0,101,118,112,84,93,104,133,0,159,110,136,148,135,131,119,0,124,121,122,126,108,131,117,0,130,128,126,120,92,108,108,0,120,121,111,109,157,97,128,21,141,145,136,130,66,139,122,62,113,110,108,125,92,108,122,86,141,111,133,140,133,121,115,101,111,122,127,117,106,108,131,109,129,139,132,168,174,142,118,114,128,142,110,105,94,103,117,117,116,118,133,150,1,125,119,118,114,100,116,111,0,106,125,118,124,129,116,135,2,128,116,120,106,132,104,117,0,133
133,120,133,96,114,112,11,124,118,120,136,151,129,157,56,136,118,120,125,121,120,126,63,100,128,120,124,98,125,103,43,118,116,121,116,128,122,131,78,122,115,121,111,132,121,116,92,107,125,120,120,116,116,125,119,127,139,119,133,96,118,123,107,126,99,122,124,115,118,124,88,109,118,121,114,126,122,109,135,113,127,120,134,126,126,111,91,113,117,121,121,137,121,116,121,115,118,121,113,116,110,144,126,119,120,121,110,91,128,103,155,109,123,121,116,117,129,141,134,145,129,121,122,118,128,131,110,126
125,121,124,127,140,192,142,134,112,122,118,122,117,111,152,109,123,121,122,124,122,125,95,124,128,120,125,105,121,122,92,113,118,121,126,124,118,109,104,129,125,121,119,115,120,130,139,108,103,121,131,98,109,122,134,111,134,121,153,105,114,74,102,122,106,121,125,125,124,174,118,115,133,121,108,114,130,104,164,111,124,122,115,123,124,119,163,143,116,121,117,108,119,118,102,111,127,121,132,115,121,118,100,124,125,121,123,124,126,103,107,126,116,122,117,117,127,125,151,127,120,120,117,124,120,120,132,108
123,121,123,91,114,145,140,129,119,120,118,125,120,122,194,126,112,121,122,121,117,97,150,102,125,120,119,121,126,127,145,129,117,121,120,121,124,115,122,121,120,121,119,111,118,129,85,129,122,121,122,118,124,129,152,116,115,121,116,129,121,88,110,101,122,122,108,136,126,120,141,117,110,122,112,100,112,120,241,109,139,120,137,127,121,137,242,145,110,122,101,142,120,116,242,93,116,121,118,105,133,114,242,116,143,120,117,121,118,120,240,107,107,121,125,128,120,134,242,124,115,121,110,121,119,124,195,118
122,122,116,108,101,129,139,116,121,121,117,115,113,129,127,117,129,120,122,111,132,139,123,160,114,121,119,123,126,147,0,118,121,122,121,122,120,114,0,116,126,121,124,116,119,145,37,126,120,120,126,125,122,135,23,123,123,121,122,130,121,131,111,143,121,121,117,102,118,130,95,121,119,120,135,119,126,122,128,140,116,122,130,107,115,121,97,117,116,121,121,147,120,109,80,109,137,121,135,64,143,126,118,129,115,121,108,121,104,137,73,117,125,120,134,150,138,128,29,120,112,121,114,112,116,112,129,118
130,120,116,127,117,109,123,119,119,122,116,116,119,110,151,124,122,121,125,131,117,109,96,117,120,121,117,125,120,135,105,117,122,121,124,134,106,119,125,129,124,121,122,132,136,177,200,145,120,121,118,122,81,124,123,133,128,121,128,139,137,140,101,124,114,121,123,127,124,111,117,116,126,121,119,126,119,129,104,122,118,121,123,102,127,112,110,120,130,121,115,126,120,126,131,111,110,121,119,116,120,134,131,118,123,121,128,121,124,107,103,117,119,121,106,105,121,120,129,117,125,120,134,153,139,121,128,130
117,121,123,110,108,139,109,109,111,122,112,123,123,154,115,109,125,122,123,115,124,120,139,118,121,122,124,120,114,117,106,115,127,121,124,130,114,114,139,113,119,121,128,139,121,133,51,116,117,122,110,113,132,105,111,117,115,121,136,126,104,120,100,112,125,121,97,117,125,137,47,115,126,121,120,131,121,94,138,129,119,121,121,119,93,116,134,113,123,122,119,125,112,115,138,126,117,121,123,125,120,113,106,116,116,122,123,102,109,71,143,116,130,120,117,133,149,110,96,122,110,122,120,119,120,123,179,119
118,121,119,108,122,143,73,117,118,121,120,119,122,112,165,117,133,121,140,159,124,126,69,124,113,121,117,115,128,112,102,124,116,122,120,134,113,147,141,112,116,121,107,130,118,162,56,123,130,121,110,112,124,132,73,138,119,121,133,112,111,117,97,111,118,120,111,122,121,120,99,132,123,122,124,145,113,139,146,119,122,122,121,122,113,113,106,114,127,121,131,126,123,106,84,121,117,122,117,108,131,132,132,118,119,121,122,118,122,124,77,120,119,121,117,117,124,188,161,115,125,122,130,119,127,124,168,137
119,121,120,103,126,123,109,125,118,121,133,139,107,117,111,113,123,121,120,130,106,153,152,135,127,120,125,152,133,135,94,130,117,120,116,123,120,77,117,118,118,121,120,130,128,136,78,118,127,121,130,126,116,110,107,120,129,121,116,119,117,118,102,127,111,121,126,132,121,115,227,116,131,121,119,126,131,146,112,148,118,121,115,108,115,110,130,108,125,121,116,136,150,110,116,121,111,121,121,116,117,115,113,113,126,121,121,106,119,171,114,136,122,121,126,136,129,152,175,129,121,121,120,119,116,115,103,123
113,122,133,117,126,131,119,117,123,122,133,138,143,150,102,115,120,121,123,112,111,91,99,122,126,121,121,125,130,145,146,128,117,121,118,122,127,110,72,114,122,121,122,123,121,126,105,115,124,121,113,106,119,122,145,119,118,121,123,112,130,99,104,136,123,122,120,119,123,112,107,118,120,122,119,120,118,108,123,119,119,120,113,112,122,119,145,111,116,121,138,137,163,110,159,109,118,120,110,100,115,119,132,133,104,121,111,103,115,111,155,85,141,121,122,137,121,123,154,159,126,120,109,113,128,128,113,124
120,122,128,129,114,124,107,120,125,121,110,126,137,121,74,119,100,122,125,131,111,124,124,107,142,121,119,119,131,116,129,115,115,121,112,115,99,121,97,122,130,121,111,113,117,127,108,131,123,122,143,162,123,99,132,127,115,122,114,117,120,122,177,134,123,121,120,108,139,170,172,132,109,121,116,118,115,89,76,99,122,122,120,118,123,126,87,117,126,121,117,123,125,153,118,132,128,120,126,131,143,158,115,125,132,121,115,106,128,114,86,120,108,122,120,111,103,108,151,120,119,119,112,109,124,121,89,121
133,119,125,126,123,128,137,150,119,120,105,119,124,130,153,126,117,121,132,148,119,121,128,111,123,121,111,94,86,122,105,135,124,122,142,144,141,119,125,90,132,121,131,141,132,143,147,156,116,121,114,123,113,114,92,107,114,121,112,124,115,113,132,120,124,122,113,135,116,126,95,114,123,122,119,105,112,140,181,138,135,120,111,136,130,136,38,122,104,121,127,109,115,111,122,106,124,122,113,120,121,100,2,119,130,121,107,108,118,121,73,119,118,121,136,160,123,112,134,118,114,121,110,115,121,121,48,83
122,121,119,125,126,97,106,123,141,120,127,127,107,73,70,158,104,122,120,126,125,124,112,91,121,122,112,126,124,106,146,119,126,125,125,116,101,109,106,110,124,121,124,110,122,140,119,144,128,134,125,116,131,155,118,140,117,131,123,128,113,102,124,111,114,135,163,125,130,116,117,115,111,108,106,111,116,118,101,108,123,122,136,117,123,116,107,113,120,114,110,139,126,114,131,118,131,120,109,115,146,102,125,128,104,121,123,127,117,118,107,130,114,114,126,122,114,126,142,109,133,130,128,127,124,80,100,108
116,118,125,134,134,114,120,119,122,119,120,122,149,111,168,118,113,133,120,117,126,100,95,110,135,130,126,127,133,121,202,157,118,127,131,117,131,102,95,116,112,126,123,123,118,122,75,109,128,110,117,118,131,126,170,132,118,115,129,135,121,121,137,117,127,118,123,110,107,145,56,138,119,141,145,147,123,134,93,118,115,115,116,128,123,116,137,116,136,123,117,116,120,115,141,133,116,113,134,135,113,125,110,116,119,117,115,80,118,121,147,126,121,120,123,152,126,123,177,110,119,120,118,127,111,134,127,124
123,122,117,124,121,104,117,117,120,121,120,117,122,145,163,139,119,125,124,130,122,129,147,121,126,125,137,119,103,139,127,128,106,118,118,118,113,83,119,98,129,121,121,125,123,119,70,121,115,117,118,113,119,88,126,116,129,120,119,128,121,98,87,113,113,121,128,127,121,137,97,117,118,121,136,124,110,114,104,99,126,121,118,121,122,123,83,122,106,122,119,124,111,102,138,113,107,121,107,91,122,132,106,104,128,121,118,142,117,114,121,122,128,120,110,120,113,100,125,125,120,121,167,129,133,114,134,120
121,128,154,108,114,120,125,122,119,119,115,135,116,128,94,110,115,120,104,117,133,116,114,114,124,121,131,122,129,126,109,126,128,138,119,112,91,111,108,128,113,127,118,121,152,98,132,104,124,125,124,122,96,122,136,123,130,128,128,127,125,125,163,146,114,104,118,114,118,71,119,115,126,120,125,123,122,126,162,121,111,122,118,122,122,119,64,106,119,118,115,129,120,130,111,106,119,134,118,118,124,122,112,125,111,127,104,116,117,113,100,109,127,133,128,135,113,119,81,112,128,137,116,126,116,95,84,119
110,121,101,118,126,121,121,116,122,123,127,123,122,111,128,119,119,122,109,124,119,163,130,126,109,117,132,107,88,135,127,113,114,110,118,112,128,104,124,113,128,104,125,133,120,142,152,129,122,115,121,119,102,140,119,123,115,113,117,116,86,108,106,106,120,118,125,126,137,138,145,133,125,130,124,126,125,121,79,148,115,119,124,120,119,118,119,96,122,121,115,118,117,131,113,133,124,126,115,128,124,117,68,104,119,130,133,134,118,120,130,121,101,128,133,117,124,114,193,98,132,136,122,151,123,137,129,140
131,119,124,125,127,114,152,137,116,115,121,117,115,95,118,116,110,113,120,120,115,141,118,106,117,129,121,127,120,114,111,102,128,135,129,115,135,139,155,132,115,111,113,128,117,100,140,120,116,111,126,129,128,149,146,114,127,112,117,123,114,89,102,124,119,128,122,122,106,127,195,117,126,124,117,112,87,87,102,117,108,123,128,133,129,144,196,110,124,120,118,119,118,94,73,118,126,126,117,124,138,95,132,126,112,106,128,129,126,114,108,112,119,110,122,111,133,106,139,127,126,112,135,105,124,137,163,123
120,117,131,120,112,141,123,114,115,120,121,129,128,124,127,109,112,129,123,122,107,120,129,117,113,120,121,135,149,113,139,119,123,115,116,123,123,186,112,112,117,118,123,118,123,141,137,116,131,120,117,126,118,134,137,132,125,120,116,113,128,110,142,137,119,129,130,120,88,104,70,115,116,119,126,128,124,110,131,112,123,126,115,120,112,111,108,125,128,134,119,106,112,111,99,117,110,128,116,119,99,135,112,101,125,108,121,122,108,126,140,117,121,126,120,122,132,117,141,127,120,117,125,133,128,139,104,113
123,126,116,117,122,127,111,122,116,129,131,117,127,111,105,114,125,118,129,142,142,98,141,131,105,137,118,113,111,107,128,111,120,118,126,118,121,161,125,112,130,112,121,136,116,82,111,125,126,118,110,112,116,121,116,123,131,119,130,116,122,134,131,128,115,120,120,115,133,124,147,121,113,120,131,138,137,133,113,118,123,121,123,119,120,120,112,125,125,120,124,118,115,151,160,128,122,122,116,132,113,91,153,125,118,121,123,116,129,112,167,125,113,120,121,137,153,118,129,111,127,120,117,114,118,127,140,118
119,121,119,104,123,139,121,123,117,122,116,137,110,134,147,128,132,120,131,114,111,118,123,141,121,121,117,110,111,113,108,123,118,121,113,114,145,94,124,114,119,121,127,125,118,144,145,126,122,121,116,118,120,109,143,128,115,125,137,119,120,126,118,120,108,120,118,125,122,129,126,107,124,120,120,121,127,125,70,118,123,120,117,120,121,111,98,123,118,121,118,118,110,137,197,120,120,122,118,128,112,119,77,119,120,121,117,117,107,132,128,118,121,121,118,125,126,116,117,123,114,121,122,122,119,132,123,115
123,121,132,132,126,136,161,130,119,121,120,132,127,115,123,118,135,121,132,122,121,138,111,130,117,122,127,114,121,109,109,119,123,122,119,128,157,120,118,119,117,121,119,116,115,123,125,115,126,121,121,125,103,130,119,122,128,121,113,117,115,104,100,117,116,122,120,121,122,116,117,133,114,122,116,121,118,117,108,92,128,122,129,124,119,111,123,131,113,121,125,124,116,100,191,129,115,120,117,117,126,125,107,106,129,121,117,117,95,97,116,124,125,122,131,125,132,100,178,133,122,122,129,143,117,126,136,127
116,119,119,118,107,118,122,117,125,123,121,115,125,114,101,114,120,120,124,119,116,124,121,117,122,121,119,124,135,106,130,127,119,121,117,118,124,107,138,121,123,121,115,113,111,145,114,121,122,121,116,125,116,108,144,126,116,121,119,116,139,84,117,111,120,121,137,126,115,119,84,111,128,122,119,122,118,138,86,134,111,121,114,128,132,120,117,120,112,122,120,120,118,106,123,103,129,122,117,122,128,148,126,121,117,121,120,122,112,102,173,126,123,121,122,120,127,120,109,118,113,122,119,118,146,96,76,103
125,121,121,125,126,142,110,138,115,121,121,119,115,117,128,112,118,122,123,125,126,149,112,114,124,121,126,114,135,122,71,121,115,122,120,123,118,124,162,118,122,121,111,125,123,125,82,126,128,121,120,123,109,125,110,119,120,121,118,120,123,121,112,115,117,120,117,138,122,129,125,121,123,122,119,123,121,135,145,125,119,122,126,121,123,92,115,109,122,121,119,140,121,115,147,126,128,122,126,122,133,92,114,117,116,122,126,121,119,125,120,115,125,121,119,136,134,122,82,116,119,121,118,132,124,135,132,125
111,122,128,118,115,122,129,116,127,120,112,116,103,88,127,128,128,121,125,119,128,183,99,142,117,121,124,115,124,112,108,115,123,121,128,130,124,123,115,120,119,121,119,112,115,112,132,116,118,121,113,126,119,190,186,140,118,121,127,128,117,105,115,104,127,121,121,111,121,159,119,138,120,121,123,127,112,111,131,119,123,122,115,125,126,129,128,123,124,121,123,134,126,132,154,129,122,121,130,118,118,121,115,117,116,121,119,123,117,118,118,121,117,121,119,125,119,121,161,124,126,120,119,114,123,127,109,123
119,121,121,122,115,105,115,117,122,121,114,135,136,156,152,131,117,121,122,129,119,114,138,112,123,121,137,142,124,119,150,123,120,121,118,114,118,119,96,112,116,121,122,131,122,146,83,119,121,121,128,135,130,135,128,118,122,121,119,117,126,116,111,113,121,121,122,122,120,130,147,117,123,121,123,126,121,127,165,137,124,121,117,122,115,113,101,123,119,122,120,125,128,126,194,134,115,121,116,119,120,109,162,128,125,121,132,123,129,143,139,134,124,121,112,119,123,118,100,118,122,122,120,116,124,134,104,122
123,121,123,127,144,144,100,117,119,121,122,111,129,121,145,125,126,121,116,121,131,97,124,124,116,122,126,122,142,111,113,123,117,122,130,147,124,129,151,121,127,121,117,113,123,128,161,145,121,122,132,121,126,122,123,116,116,121,112,121,119,116,146,119,129,122,125,130,128,133,120,129,116,121,122,121,128,128,134,117,115,122,124,124,116,121,128,117,125,121,124,131,128,108,76,120,117,122,113,118,117,115,103,115,127,121,123,122,120,127,88,127,117,121,119,117,137,116,119,114,117,121,120,119,118,118,121,115
119,121,121,126,121,157,112,120,123,121,118,112,123,128,100,113,119,121,125,131,123,121,114,126,122,122,109,117,116,113,114,117,118,122,116,118,114,112,101,110,124,122,119,125,131,131,141,132,117,122,129,135,107,127,106,117,116,122,116,126,128,125,123,118,121,122,127,139,118,124,139,122,120,122,122,118,118,126,141,126,112,121,115,113,116,123,114,113,128,121,119,127,123,118,64,111,128,121,119,124,123,107,109,130,117,122,127,130,107,112,146,119,122,121,116,102,121,118,66,120,124,121,125,126,127,114,128,123
114,121,124,132,117,137,111,118,114,121,119,120,119,116,122,113,126,121,124,130,131,111,138,111,127,122,117,120,128,108,112,128,121,121,122,124,135,103,117,121,117,120,120,118,115,143,107,110,120,121,120,128,123,140,130,129,118,121,126,118,74,71,100,111,119,121,115,119,128,117,107,115,127,120,124,117,121,125,112,121,117,122,115,121,123,127,129,126,123,121,127,143,123,117,114,117,115,121,131,115,126,126,112,115,115,121,123,110,117,119,106,113,134,122,120,137,123,132,165,127,114,121,118,120,120,118,95,117
121,121,114,125,114,118,110,123,122,121,122,118,130,116,133,124,116,121,116,116,119,109,118,118,118,122,124,126,130,103,77,125,118,121,116,111,120,94,104,113,121,121,127,109,118,101,98,117,122,121,116,118,125,129,146,132,114,121,121,124,112,140,96,105,122,121,120,126,121,123,104,112,129,121,116,117,127,119,111,128,119,121,122,129,118,131,138,123,118,122,115,119,125,116,105,114,122,120,119,122,119,140,152,124,122,121,127,120,119,98,109,121,120,121,119,130,119,127,116,119,119,122,122,122,123,169,119,115
121,122,119,127,124,120,122,116,119,120,119,124,119,121,110,120,120,122,125,122,109,107,141,118,125,121,118,114,113,102,108,119,118,122,122,125,121,123,139,127,118,120,125,128,109,115,101,105,122,121,118,116,121,130,125,123,123,122,124,116,120,124,128,124,111,122,119,121,109,87,117,115,127,121,124,124,131,111,107,127,122,121,125,117,119,134,138,125,118,121,117,132,123,123,135,118,117,121,118,116,115,110,127,115,125,121,123,126,126,125,116,122,126,121,124,127,125,117,88,121,118,121,119,117,121,121,137,128
121,121,123,120,119,119,126,121,120,121,112,120,121,127,123,121,118,122,121,119,120,121,118,111,123,121,119,138,119,121,117,126,120,122,124,116,122,111,117,120,119,122,115,124,124,119,126,118,125,121,125,137,125,122,93,128,115,121,120,118,119,124,106,115,121,122,122,129,124,112,109,114,122,122,114,118,118,101,102,115,122,121,116,119,124,126,101,129,122,122,117,122,139,120,119,120,120,122,120,120,124,125,131,117,112,122,120,126,119,129,152,125,126,120,123,122,122,122,66,124,119,121,118,119,116,95,82,115
118,122,124,136,128,157,145,130,121,121,128,124,101,113,109,112,121,121,119,125,122,138,125,119,120,121,121,123,120,122,127,119,122,121,119,119,123,131,198,131,127,120,120,110,122,122,116,126,114,122,118,126,123,139,131,118,123,121,125,121,115,116,111,117,127,120,113,127,122,126,108,121,113,122,114,125,118,125,147,124,116,122,126,131,126,123,108,108,130,121,120,128,121,120,129,131,116,122,122,122,122,106,111,119,121,121,118,126,122,126,148,132,122,122,120,118,121,104,83,117,119,121,121,122,122,131,147,128
121,122,124,119,122,122,115,115,126,121,117,131,122,110,108,119,113,122,122,102,119,113,119,119,124,121,117,114,118,116,121,120,128,121,126,136,114,114,127,125,119,122,114,121,135,113,124,131,123,121,128,125,123,126,128,116,122,122,118,100,128,135,129,123,123,121,125,126,132,124,114,124,117,121,121,123,116,128,135,118,123,121,127,125,100,105,127,121,121,122,119,120,125,113,105,123,125,121,126,128,123,126,136,124,118,120,117,119,129,109,113,117,121,121,125,128,123,111,114,124,128,121,133,123,116,125,106,126
116,122,118,120,117,103,128,110,124,121,121,120,127,131,121,126,126,121,121,119,124,135,160,125,115,121,124,123,123,119,90,105,129,122,114,119,118,122,142,129,118,121,118,132,123,118,118,118,114,121,117,110,117,121,122,117,121,122,117,123,119,117,113,118,121,122,120,124,121,126,142,119,124,122,120,120,121,114,104,120,121,121,124,133,123,137,119,115,117,121,120,109,115,113,121,117,127,121,115,123,118,126,138,123,112,122,135,123,124,143,109,116,123,121,122,126,143,110,117,122,121,122,120,114,102,119,130,115
122,121,118,121,112,104,119,118,119,121,121,129,124,78,120,121,122,121,120,114,120,121,133,118,120,121,128,122,115,106,117,120,121,121,122,119,119,122,143,120,117,122,125,129,123,119,103,113,123,122,120,119,118,126,115,125,121,121,109,114,118,110,117,121,118,121,128,131,119,121,125,117,125,120,116,123,120,116,137,122,118,121,116,117,121,128,125,123,116,121,121,121,117,113,133,119,122,121,118,129,121,119,110,120,116,121,122,121,121,109,122,110,124,122,121,126,123,138,201,135,121,122,119,122,118,115,93,120
121,122,129,121,121,114,131,118,123,121,119,123,121,119,122,120,116,122,117,120,121,117,112,115,121,122,117,121,129,118,113,121,121,121,130,128,118,116,143,115,122,122,122,125,123,105,110,116,118,122,115,131,121,115,109,118,120,122,116,118,114,113,92,119,124,121,121,123,119,121,128,122,127,121,111,123,137,153,126,122,112,121,116,120,118,113,133,118,116,122,126,119,84,105,137,119,122,122,114,115,121,109,103,120,123,121,127,127,116,122,135,119,125,121,122,124,124,123,101,122,117,121,117,119,122,128,131,115
121,121,123,124,119,129,107,120,120,122,122,125,117,114,136,119,123,122,122,127,127,127,158,137,113,121,115,120,121,136,120,116,123,121,118,117,119,115,126,116,124,121,119,121,121,116,104,126,118,121,132,122,121,122,135,117,119,122,117,120,118,118,118,119,115,122,114,107,125,129,109,114,127,121,140,118,119,115,107,121,118,121,117,116,119,123,132,124,122,122,124,121,124,131,141,123,120,122,120,121,126,119,114,118,119,121,125,124,129,87,102,116,121,122,126,115,120,111,127,119,121,121,120,125,117,117,124,118
116,121,120,128,122,124,130,119,123,121,120,125,120,123,118,121,121,121,122,118,125,137,104,119,119,121,120,117,104,87,121,121,123,121,125,129,119,123,118,119,118,121,120,122,132,114,108,122,122,121,111,121,123,137,114,116,126,121,129,123,122,129,133,122,118,121,121,120,122,123,143,128,120,121,123,125,118,125,139,118,111,121,112,108,119,120,116,110,125,121,124,127,125,126,155,129,126,121,118,120,121,116,106,120,121,122,119,127,122,114,131,123,115,121,124,132,120,120,118,111,122,121,118,127,128,125,118,133
119,122,116,118,119,135,125,121,117,122,117,128,114,116,117,115,122,122,124,122,120,122,111,115,123,121,123,127,121,118,140,124,125,120,118,123,122,124,126,124,113,121,116,121,120,115,107,117,122,121,123,122,111,141,109,125,119,121,127,122,125,138,126,116,122,121,120,120,121,130,127,122,119,121,119,124,116,114,114,116,118,121,114,120,123,119,118,115,124,121,121,122,125,120,110,121,122,121,119,118,121,126,132,121,120,121,116,130,125,123,115,119,124,122,129,130,121,131,133,121,126,121,119,122,116,114,123,128
116,122,120,122,117,113,125,121,118,121,116,114,119,110,109,117,120,122,114,119,122,122,114,123,126,120,122,122,116,123,107,122,121,122,120,124,131,118,119,123,120,122,124,129,117,117,139,131,110,121,121,127,124,124,112,101,127,122,121,122,123,131,160,135,126,121,122,121,120,122,125,124,119,121,120,122,122,122,123,120,117,121,118,122,117,115,128,119,129,122,127,133,119,131,78,118,112,122,124,114,131,127,132,118,122,121,124,123,122,121,122,122,122,121,122,131,121,124,128,119,116,121,108,126,117,123,117,119
128,122,140,121,128,114,110,120,122,122,123,115,121,122,130,120,115,121,121,135,119,118,115,114,117,122,119,114,119,113,118,126,126,121,115,118,119,122,144,124,120,121,117,113,124,121,106,121,115,121,119,119,121,122,130,116,125,121,120,122,117,120,107,119,117,120,121,121,122,118,123,117,119,122,120,119,119,122,118,117,127,121,121,121,117,143,133,130,120,121,120,124,119,109,99,111,120,123,120,120,123,135,151,122,117,122,118,126,121,123,102,115,123,122,123,119,132,123,145,119,119,121,118,124,128,116,123,123
120,121,118,116,123,123,113,117,119,122,125,127,117,121,141,120,120,121,126,122,121,122,121,121,114,122,126,123,125,115,110,119,127,121,118,124,127,121,137,120,120,122,123,124,119,112,109,112,120,122,117,112,122,122,139,114,123,121,120,118,126,122,100,123,116,122,128,122,119,115,123,119,116,122,119,111,111,124,120,119,122,121,121,121,121,121,112,123,123,121,127,119,117,120,108,121,117,122,123,127,118,113,107,118,118,122,134,125,124,133,111,121,126,121,121,110,120,115,94,114,123,122,121,130,124,122,134,129
115,121,122,123,131,86,118,118,122,122,125,123,114,120,118,120,118,121,124,122,135,122,129,117,120,122,121,126,122,123,129,115,124,122,117,121,122,118,120,124,121,121,118,119,119,118,130,123,119,122,128,121,119,119,121,109,117,122,120,116,123,112,116,126,124,121,119,131,126,120,107,119,121,121,121,123,117,117,126,123,121,122,123,124,122,118,130,118,116,121,119,121,120,121,124,119,120,121,119,121,122,123,119,117,119,121,119,118,128,120,115,118,125,122,124,124,132,118,113,127,125,121,117,126,123,127,119,119
117,122,131,124,135,121,106,118,120,121,117,114,111,117,123,118,122,121,124,118,124,122,113,119,119,121,118,121,124,129,144,125,127,120,121,124,124,128,134,129,120,122,122,119,108,152,132,121,119,121,115,120,122,119,119,111,123,122,121,121,122,122,131,125,120,122,116,123,123,120,128,120,118,121,126,122,121,120,134,118,115,121,132,136,124,114,109,115,119,121,128,117,124,133,133,116,125,120,119,122,118,118,117,124,118,121,119,122,122,118,122,117,121,121,123,119,97,109,109,115,114,121,119,122,123,116,124,116
126,121,127,123,123,119,112,121,123,121,118,121,122,126,119,120,120,121,122,117,130,125,135,124,112,121,119,117,121,116,121,117,129,121,122,124,121,116,132,124,120,121,123,119,119,120,107,118,119,121,124,122,129,122,114,124,116,121,122,125,119,121,113,117,123,122,114,119,121,101,116,120,121,121,122,118,121,121,137,127,124,122,128,118,120,116,115,123,119,121,126,132,120,122,117,117,123,122,117,116,122,121,127,124,122,122,129,134,108,110,129,119,116,122,118,117,119,119,117,115,124,121,125,129,129,132,135,125
124,122,123,122,120,126,101,122,121,121,118,120,116,115,129,121,117,122,126,116,114,119,128,118,125,121,123,125,116,120,106,120,118,121,115,118,116,122,132,130,118,122,126,127,142,120,94,118,121,122,121,124,122,126,122,121,123,121,118,118,123,121,119,121,118,122,120,127,129,115,139,122,119,122,119,117,120,122,107,117,121,122,114,112,121,120,117,119,119,122,117,124,119,120,120,119,117,121,129,120,116,103,120,118,123,122,114,123,106,117,122,131,119,122,120,125,123,115,105,118,118,121,117,120,120,117,102,118
125,121,120,109,119,128,128,126,121,122,130,123,120,120,137,117,117,122,122,115,121,133,111,122,124,122,119,122,125,131,116,123,118,121,118,120,118,117,123,123,117,121,123,123,124,122,117,112,123,121,113,120,130,110,110,122,121,122,134,130,127,126,134,124,122,122,119,120,121,120,124,120,121,121,121,119,123,121,122,120,122,122,117,122,120,113,129,124,115,122,120,122,123,125,115,109,124,121,123,127,126,130,132,126,125,122,125,134,117,117,121,124,123,122,120,118,124,106,121,124,115,122,117,119,158,151,116,117
123,121,122,123,119,121,105,115,120,121,119,134,129,121,113,119,127,121,114,116,98,118,130,124,121,121,120,123,121,120,128,123,117,122,117,118,121,124,126,118,124,121,134,125,121,123,105,118,120,121,113,119,114,141,136,127,124,122,122,127,118,110,131,115,117,121,121,129,126,123,128,118,119,121,120,120,112,122,101,119,120,121,114,120,118,124,131,122,121,122,118,122,119,120,119,122,124,121,136,123,120,126,142,120,125,120,119,128,130,116,118,125,118,122,125,116,119,121,120,119,120,121,116,123,124,131,143,123
119,121,121,125,126,109,116,116,126,122,123,122,120,120,146,129,117,121,110,120,120,121,108,118,121,121,117,118,121,118,113,117,119,122,129,127,123,122,124,121,121,121,117,125,122,120,117,121,122,121,121,126,122,122,123,122,119,120,116,122,119,123,155,122,121,122,124,131,128,125,136,123,125,121,119,119,124,114,108,118,117,121,118,120,122,128,138,132,119,121,123,124,118,116,118,116,123,120,112,117,122,123,127,123,121,121,118,125,120,125,106,117,121,122,121,114,128,130,144,125,121,121,119,125,119,125,115,118
120,122,123,116,124,122,121,114,119,122,114,117,115,98,120,115,122,121,124,126,140,121,116,123,118,122,122,123,122,118,113,124,111,121,122,120,127,122,115,111,123,122,118,122,117,124,133,118,124,121,119,121,125,103,147,124,120,121,118,120,123,123,121,123,120,122,118,120,120,116,120,115,127,122,124,127,121,119,112,121,116,121,122,118,123,124,130,126,117,122,107,122,121,119,149,117,124,122,136,126,119,111,111,120,119,122,119,129,121,123,117,122,123,122,117,115,122,121,122,121,113,122,120,121,122,117,101,109
129,121,127,131,133,131,120,137,119,122,118,113,118,120,115,117,122,121,122,124,123,125,127,122,121,121,117,120,119,116,124,117,119,121,128,137,123,121,112,116,124,121,122,125,119,118,106,122,118,122,117,107,136,127,128,126,118,121,117,121,122,113,112,115,116,122,119,119,117,111,131,127,119,121,114,115,121,127,104,117,121,122,118,116,123,109,108,119,123,121,136,130,128,118,105,121,124,121,122,123,126,136,146,124,119,121,128,124,120,119,114,116,121,122,126,119,123,128,104,123,119,121,129,123,120,121,115,124
120,121,116,122,119,117,122,122,117,122,122,123,121,134,125,115,121,122,116,118,119,117,138,118,124,122,129,140,120,114,100,117,120,122,119,123,118,121,137,128,123,121,116,122,121,119,118,117,111,122,123,117,123,136,136,116,122,122,124,125,117,124,97,119,124,121,117,121,128,111,123,118,123,122,121,127,118,128,124,124,113,122,116,126,149,119,116,115,129,122,129,120,121,127,130,128,114,122,119,127,126,118,117,117,122,121,119,119,119,122,116,119,126,121,123,118,120,111,121,123,113,121,128,126,126,117,135,113
