119,122,121,121,120,121,121,118,119,120,120,121,121,121,122,121,120,121,121,122,121,122,121,120,120,121,121,122,121,120,121,121,118,122,122,122,121,120,120,114,122,122,122,122,122,121,122,122,121,121,121,122,121,121,121,121,121,127,120,121,121,121,122,121,120,117,121,122,122,120,121,121,121,124,121,122,120,121,121,120,121,123,122,122,121,120,121,120,121,121,121,122,120,121,122,120,120,121,121,122,121,121,121,120,120,122,121,122,121,122,121,120,121,121,121,122,122,121,121,121,121,122,121,122,121,121,121,120
120,121,121,122,121,120,121,120,120,121,121,121,121,121,122,120,121,122,121,122,121,120,121,121,120,120,120,121,121,121,121,119,120,121,121,122,121,121,120,119,121,121,121,122,120,120,121,121,121,122,122,122,120,120,121,120,122,119,121,122,122,122,122,120,120,122,121,122,122,121,121,119,121,123,120,121,121,121,121,120,120,121,121,122,121,121,121,120,121,121,120,121,121,121,121,121,121,121,120,121,121,121,121,121,119,120,120,122,121,121,122,120,120,121,121,122,121,122,121,120,121,121,121,121,121,121,121,120
120,122,121,122,122,121,120,119,121,123,122,122,120,121,121,120,120,121,121,122,122,121,121,120,120,121,120,121,121,121,121,120,120,119,121,122,122,121,121,120,120,121,121,122,121,121,120,120,121,123,120,122,121,121,122,121,121,122,121,121,121,120,121,120,120,121,121,122,121,120,121,120,120,122,121,122,121,121,121,119,120,121,121,122,121,121,121,120,121,121,120,122,121,121,122,121,120,121,121,122,122,121,120,118,121,122,122,122,121,121,121,121,121,122,121,122,122,121,122,121,121,121,120,122,121,121,122,120
120,121,121,122,122,121,120,120,121,122,121,122,122,121,122,120,121,120,120,121,121,121,121,120,119,121,121,122,121,121,121,121,120,121,121,122,121,121,121,120,120,123,121,122,122,121,120,120,121,121,121,122,121,122,122,120,120,121,121,122,121,121,121,120,120,122,120,122,121,121,122,120,121,122,121,122,121,120,121,121,121,122,121,122,121,121,121,121,120,121,121,122,121,120,121,119,120,121,121,122,121,121,121,120,120,121,121,122,121,121,122,120,120,121,121,122,121,121,121,119,120,121,121,122,121,121,121,121
121,122,121,121,120,121,121,121,120,121,121,122,121,121,121,120,120,121,121,122,121,121,121,120,121,122,121,122,122,122,122,120,121,122,121,121,120,121,121,121,120,121,120,121,121,121,121,120,121,122,121,121,120,121,121,121,119,120,120,122,121,121,122,121,121,125,121,122,120,120,121,120,121,115,120,121,121,121,122,121,121,124,121,121,121,121,121,120,121,122,120,121,121,121,122,121,121,122,120,121,120,121,122,121,120,121,121,122,122,122,121,120,120,121,120,122,121,121,122,120,121,122,121,121,121,121,121,120
121,121,121,122,122,121,121,121,121,122,121,121,120,121,121,121,121,122,121,121,120,121,121,121,120,121,121,122,122,121,121,120,121,122,121,122,121,120,121,121,121,121,120,122,121,121,121,121,120,121,121,122,121,121,121,120,120,120,121,122,121,121,121,119,120,121,120,121,121,121,121,120,122,128,122,122,121,121,122,121,119,116,121,122,121,122,121,119,119,122,121,122,121,121,120,120,121,121,121,122,121,121,121,121,121,122,121,121,120,121,122,121,120,121,121,122,121,120,121,120,120,121,121,122,121,121,122,120
120,121,121,122,121,121,121,119,119,121,120,122,121,121,121,120,121,122,122,122,121,122,122,120,121,122,121,122,122,121,120,119,121,122,121,121,120,121,121,120,120,121,120,121,121,121,122,121,120,121,121,122,121,122,121,120,120,120,120,121,121,121,121,119,120,121,121,122,121,121,121,121,121,122,121,122,122,121,121,121,120,121,121,122,121,121,121,119,120,121,122,122,120,120,121,119,121,120,121,122,122,120,121,121,121,122,121,121,121,121,121,120,121,117,122,122,121,120,121,120,121,123,121,123,122,122,121,121
121,123,122,122,120,120,121,121,121,122,121,121,120,121,121,120,120,121,121,122,121,121,121,120,121,121,121,122,121,121,121,121,120,122,121,121,120,121,121,119,121,122,120,121,121,121,121,120,121,121,120,121,121,121,122,124,119,120,121,122,122,121,121,118,121,122,121,122,122,122,122,118,122,121,120,121,121,121,122,123,123,122,120,121,121,121,122,125,119,121,121,122,120,120,121,120,118,121,121,122,122,122,120,114,122,120,120,121,121,121,122,123,121,121,120,121,121,121,122,122,120,123,121,122,121,121,121,121
121,115,121,122,120,120,121,121,120,123,121,122,121,121,121,118,120,123,121,122,121,120,120,119,121,121,121,122,121,120,121,121,120,121,121,122,121,120,121,120,121,122,122,122,121,121,122,121,120,122,121,122,121,122,121,120,120,121,121,122,121,120,121,120,120,121,121,121,120,120,121,120,121,121,120,121,121,121,121,120,121,121,120,121,121,121,122,121,121,122,121,121,120,121,121,121,120,121,121,122,122,121,121,120,120,121,121,122,121,122,121,120,120,122,121,122,122,121,122,120,121,122,121,121,120,120,121,121
120,121,121,122,121,121,122,121,120,121,121,122,121,121,121,119,119,120,120,121,121,121,121,119,121,127,121,122,121,121,122,121,120,117,121,122,120,120,121,119,120,123,120,122,122,121,121,120,121,123,121,121,121,121,121,120,120,121,121,122,122,121,121,120,121,122,122,122,121,121,120,120,120,122,121,122,122,120,121,121,120,121,121,121,120,121,121,120,121,121,121,122,121,121,122,121,121,122,121,121,120,121,121,121,121,123,121,121,121,121,121,120,121,122,121,121,120,121,121,120,120,121,121,122,121,120,121,121
121,122,120,121,121,121,122,121,121,121,120,121,120,121,121,120,121,122,121,121,121,121,122,121,121,122,122,122,121,120,121,121,120,122,122,123,122,122,121,118,121,127,121,122,122,121,121,122,120,116,119,121,121,121,122,119,120,123,121,122,121,121,121,119,121,122,121,121,121,121,122,121,120,122,121,122,120,120,121,120,120,120,120,122,121,121,121,120,120,121,121,122,121,120,121,120,120,121,121,122,122,121,121,119,121,122,121,122,122,121,121,120,121,122,121,121,120,121,121,121,120,120,120,121,121,121,121,121
120,121,121,122,121,121,122,120,121,122,121,122,122,122,122,120,121,121,121,122,121,120,121,120,121,122,121,122,121,121,121,121,121,122,121,121,121,121,122,121,120,122,121,122,121,121,120,119,120,121,120,122,121,121,121,120,120,121,121,122,121,121,121,120,119,120,121,122,121,121,121,119,121,123,121,121,120,121,121,120,121,121,121,122,122,121,122,121,121,122,121,121,121,121,121,121,121,121,120,121,121,121,121,120,121,122,121,122,121,120,121,120,120,122,121,121,121,121,121,120,121,122,120,121,121,121,121,120
121,121,121,122,121,121,122,121,121,122,121,122,121,122,121,120,120,120,120,122,121,121,121,121,121,121,120,122,122,122,121,120,120,121,121,122,121,121,122,120,120,121,121,122,121,121,121,119,121,120,120,121,121,121,122,121,121,120,122,122,121,121,122,121,119,120,120,121,121,121,122,121,121,122,121,122,121,121,121,121,119,121,121,122,122,121,121,119,120,120,121,122,121,120,121,120,121,121,121,121,121,121,122,120,121,122,120,121,121,121,121,121,121,121,120,121,121,121,121,121,121,121,120,121,121,121,121,120
120,121,121,121,121,121,122,121,120,120,121,122,122,121,120,120,120,121,121,122,121,121,121,120,120,121,121,122,122,122,121,119,120,122,121,123,122,121,121,119,121,122,121,123,121,120,121,120,120,121,121,122,122,120,120,120,120,122,121,122,121,120,121,121,121,123,120,121,121,121,122,121,120,115,121,122,122,121,121,119,120,122,120,121,121,121,121,120,121,123,121,121,120,121,121,121,120,121,120,121,121,121,121,120,121,122,121,122,121,121,122,121,121,122,120,122,121,121,122,121,120,121,121,121,121,120,120,118
120,121,121,122,121,121,121,120,121,122,121,122,122,121,121,120,120,121,121,122,122,121,121,120,120,121,120,122,121,121,121,121,121,122,121,121,120,121,121,121,121,122,121,121,121,121,121,121,121,122,122,122,120,120,121,120,120,122,120,121,121,121,121,119,120,122,121,122,122,121,121,119,121,127,121,122,122,121,121,121,121,117,122,122,121,121,122,121,121,123,120,121,121,121,121,121,121,122,120,121,121,121,121,119,119,121,121,122,121,121,121,119,120,120,120,122,121,121,122,121,120,121,120,122,121,121,121,120
120,121,121,122,121,122,121,119,120,122,121,122,121,120,120,120,120,122,121,122,120,121,121,121,121,123,122,123,122,122,121,120,120,121,121,122,121,120,120,119,121,122,121,121,121,121,121,122,120,121,121,122,121,121,121,119,121,122,121,121,121,121,121,119,121,122,120,121,121,121,121,120,120,121,121,122,122,121,121,119,121,122,121,122,121,122,122,122,120,120,120,122,121,121,121,119,119,120,121,122,122,121,121,119,120,123,121,122,121,121,121,119,121,122,120,121,121,121,121,121,120,121,121,122,121,121,121,120
120,121,121,122,121,121,122,120,120,121,121,122,121,121,122,120,120,121,121,122,122,122,121,120,120,121,121,122,121,120,121,122,121,122,121,122,121,120,121,120,120,121,120,122,121,121,121,120,120,121,121,122,121,121,121,119,119,121,121,122,121,121,122,120,121,122,122,121,120,120,121,120,120,121,121,122,122,121,120,119,120,121,121,122,121,121,121,119,120,122,121,121,121,121,121,121,121,122,120,121,121,121,122,121,120,117,121,122,122,121,121,121,120,123,120,122,121,122,121,120,121,123,121,121,121,121,121,121
120,121,121,122,122,120,120,119,118,119,120,122,121,121,122,119,122,121,121,121,121,121,122,121,121,123,121,121,120,121,121,120,120,121,121,122,121,120,121,120,120,120,121,122,122,122,121,120,121,122,122,122,122,121,121,120,121,122,120,121,121,121,121,121,121,122,121,121,120,121,121,121,120,121,121,122,122,121,121,119,121,123,121,122,121,121,121,121,120,121,121,122,122,121,121,120,120,121,121,122,120,120,121,120,119,120,121,122,121,121,120,119,121,127,121,121,120,121,121,121,121,119,121,123,121,121,121,121
120,124,121,122,120,120,121,120,121,121,121,122,121,120,121,119,121,122,121,121,120,120,120,119,121,122,121,122,121,120,122,122,120,121,121,122,121,121,122,120,121,121,120,121,121,122,122,120,120,120,120,121,121,121,121,121,120,122,121,122,121,121,122,120,121,122,122,122,121,121,121,120,120,122,121,122,122,121,120,119,120,121,121,122,121,122,121,119,120,122,121,122,121,120,121,122,120,120,120,121,121,121,121,120,120,122,121,122,121,120,121,119,119,115,121,122,122,121,121,119,120,123,121,121,120,120,121,120
120,123,120,121,121,121,121,118,122,121,120,121,121,121,122,124,121,122,121,121,120,120,121,119,119,120,120,122,121,121,121,119,121,121,120,122,121,121,122,120,120,122,121,122,122,122,121,121,121,121,121,121,120,120,121,121,121,121,120,121,120,121,122,122,118,121,121,121,121,122,121,117,120,122,121,122,121,121,121,119,121,122,121,122,121,121,122,122,122,121,120,121,121,121,122,121,120,121,121,122,121,121,120,120,121,122,121,122,120,121,121,120,120,121,121,122,121,121,122,120,120,120,120,121,121,121,121,121
121,121,120,121,121,121,121,120,121,122,121,122,120,120,121,122,121,125,120,122,121,121,122,119,120,115,120,121,121,121,121,121,121,124,120,121,121,121,121,119,120,121,121,122,121,121,121,119,121,121,121,121,121,121,121,122,120,122,121,122,122,121,121,120,121,122,121,121,120,121,121,120,120,121,121,122,121,121,121,120,120,121,120,122,121,121,122,121,120,122,121,122,121,120,121,120,120,121,121,122,121,121,122,120,120,120,120,121,121,121,121,121,121,121,120,121,121,121,122,121,120,122,121,122,121,121,121,118
121,122,121,122,122,122,122,120,120,121,120,121,121,121,122,121,121,122,122,121,120,121,121,120,120,115,120,121,120,120,121,120,121,124,121,121,121,121,121,123,119,122,121,122,121,121,120,119,120,122,121,121,121,121,121,121,121,121,120,122,121,121,121,121,120,121,121,122,121,121,122,120,121,120,120,121,121,121,121,120,120,121,121,122,121,121,122,121,120,121,121,122,121,121,120,119,119,121,121,122,122,121,121,119,121,122,122,122,121,121,122,122,120,122,121,122,122,120,120,119,121,121,121,122,121,121,121,120
121,122,121,121,121,121,122,121,121,127,120,121,120,121,121,120,120,118,121,122,121,121,120,120,119,122,120,122,121,121,121,120,121,121,121,122,122,121,121,121,121,122,121,122,120,120,121,121,120,121,121,122,121,122,122,120,121,121,122,122,121,121,122,121,121,122,121,122,120,120,121,120,120,121,121,122,121,121,121,121,121,122,121,121,121,121,121,119,120,121,121,122,121,121,120,120,120,121,121,122,122,121,121,121,121,122,121,122,121,120,121,120,121,122,122,122,120,121,121,120,121,121,121,122,122,122,122,120
120,121,120,121,121,121,121,120,121,125,121,122,121,120,121,120,121,116,121,122,121,120,122,120,120,123,120,120,121,121,121,120,121,123,121,122,121,120,121,120,120,121,121,122,121,121,122,122,120,120,120,121,121,121,121,121,120,121,121,122,122,121,121,120,120,120,120,122,121,121,122,120,120,122,121,122,121,120,121,120,120,121,121,122,121,121,121,120,121,123,122,122,121,120,121,121,121,121,121,122,122,122,121,119,121,122,121,122,121,120,121,121,121,122,120,121,121,121,121,120,121,122,121,122,121,120,121,120
120,121,121,122,121,121,121,120,120,122,121,122,121,121,120,120,121,122,121,121,121,121,121,120,121,127,121,121,120,120,121,120,121,117,120,122,121,121,122,120,121,124,121,123,121,120,121,120,120,121,121,122,121,120,121,120,119,121,121,122,122,121,122,120,122,121,120,122,121,121,121,120,121,121,121,121,121,121,122,124,120,121,121,122,122,121,121,119,119,120,121,122,121,121,122,120,120,120,120,121,121,121,122,120,121,122,121,122,121,121,122,121,120,122,121,122,121,121,121,120,120,121,121,122,122,121,120,120
121,122,120,121,121,121,121,120,120,121,120,121,121,121,122,121,121,121,121,122,122,122,121,121,120,121,121,122,121,120,120,119,121,121,121,122,121,120,120,120,120,120,120,122,121,122,121,119,120,124,122,122,121,120,121,120,120,121,121,122,122,121,122,120,119,120,120,122,121,121,121,120,120,121,121,122,121,121,121,120,120,121,120,122,121,121,121,121,120,121,121,122,121,121,122,122,121,121,120,121,121,121,121,120,120,121,121,122,121,121,121,120,120,120,120,121,121,121,122,120,121,121,122,123,122,121,121,121
121,122,122,122,120,121,121,120,120,121,122,122,120,120,121,120,120,121,120,122,121,121,121,121,120,120,121,122,121,121,121,120,121,122,121,121,120,120,121,120,120,122,120,121,121,121,122,121,120,121,121,122,121,121,121,120,121,122,121,121,120,121,121,120,121,121,122,123,121,121,122,121,119,121,121,122,121,121,121,120,120,122,121,122,122,121,121,120,121,122,120,121,121,121,121,121,121,121,120,121,121,121,121,120,119,120,121,122,121,121,121,121,122,122,121,122,120,120,121,119,120,122,121,121,120,121,121,121
120,122,122,122,120,120,121,119,120,121,121,122,121,121,121,119,121,120,120,121,121,121,122,122,120,121,121,122,122,121,121,120,121,123,122,121,120,121,121,121,121,116,121,122,121,122,122,121,120,124,121,122,122,121,120,120,121,122,121,122,121,121,121,120,121,120,120,121,121,121,121,121,119,120,121,122,121,121,121,120,121,122,121,122,122,122,121,120,121,122,121,122,121,120,122,121,120,121,121,122,120,120,121,121,121,122,121,122,121,120,121,120,121,122,120,121,121,121,121,120,121,121,120,121,121,121,121,121
120,120,121,122,121,121,122,120,120,122,121,122,121,120,121,120,121,122,121,122,121,120,121,120,121,122,121,121,120,121,121,120,120,121,121,122,121,121,122,120,120,121,121,122,121,121,121,119,121,122,121,122,121,121,120,119,121,123,122,122,121,121,122,121,119,119,120,122,121,121,120,119,120,122,121,122,121,121,121,120,120,121,121,122,121,121,122,120,120,121,121,122,121,122,121,120,121,122,120,121,121,121,121,120,121,122,121,121,121,121,121,121,121,122,121,122,120,121,121,119,119,120,121,122,121,121,121,120
120,121,121,122,122,121,121,120,120,121,121,122,120,121,121,120,121,122,121,122,121,120,121,119,119,120,121,122,121,121,121,119,120,121,121,122,122,121,122,121,121,122,122,121,120,120,121,122,120,121,121,122,121,121,121,119,120,121,121,122,121,121,120,119,121,115,121,122,121,120,120,121,120,123,121,122,121,121,122,120,121,123,122,122,121,121,121,120,120,121,120,122,121,121,122,120,120,121,120,121,121,121,121,121,120,121,121,121,120,120,121,120,120,121,120,121,121,121,121,120,121,122,120,121,121,121,121,121
120,122,121,122,122,120,121,120,120,121,121,122,122,121,121,119,121,121,121,121,120,121,121,120,121,121,121,121,121,121,122,122,120,122,120,121,121,121,121,120,121,121,120,121,121,121,121,120,121,122,122,121,120,121,121,121,120,121,120,122,121,121,122,120,121,122,121,121,120,121,121,120,121,121,120,121,121,121,122,121,121,116,121,122,121,121,122,121,121,124,121,121,120,121,121,120,120,122,121,122,121,121,121,120,121,122,122,122,120,120,121,120,120,121,121,122,121,121,122,120,121,120,120,121,121,121,121,122
121,123,121,121,120,121,121,120,119,120,121,122,121,121,121,118,120,121,121,122,121,121,121,120,120,122,122,122,122,121,121,120,120,121,120,121,121,121,121,121,121,122,121,122,120,121,121,119,121,121,121,122,122,122,121,120,121,122,121,121,120,121,121,121,121,116,121,121,120,121,121,121,120,124,121,122,122,121,121,119,120,122,121,122,121,121,121,118,120,121,121,122,122,121,121,120,121,121,121,122,121,121,120,120,121,122,121,121,121,121,121,120,120,121,121,122,122,122,121,120,120,121,121,122,121,120,120,119
121,121,121,122,121,121,122,121,121,122,121,122,122,120,121,121,121,122,121,121,120,121,121,121,120,121,121,122,121,121,121,120,121,123,121,121,120,121,121,121,119,120,121,122,122,121,121,120,120,119,121,122,121,121,122,120,121,122,121,121,121,121,122,121,121,122,121,121,121,121,121,120,121,122,121,122,121,121,121,120,121,122,121,122,121,120,121,121,120,121,120,121,121,121,121,120,119,120,121,122,121,121,121,119,122,122,122,122,121,121,122,121,121,121,120,121,121,121,121,121,119,120,120,122,121,121,122,119
121,122,121,122,121,120,121,120,120,121,121,122,122,121,121,120,121,122,121,122,122,122,122,121,121,122,121,122,120,121,121,120,120,121,121,122,121,120,120,119,121,121,120,121,121,121,121,121,120,116,121,122,122,121,121,120,120,122,120,121,121,121,121,121,120,123,121,122,121,120,120,119,121,121,120,121,121,121,121,121,120,121,120,122,121,121,121,120,120,121,121,122,121,120,120,120,121,122,122,122,120,121,121,119,120,122,121,121,121,121,121,120,121,121,121,122,121,121,121,120,121,122,121,121,121,121,121,121
121,122,122,122,120,121,121,120,120,121,121,122,121,120,120,119,120,121,120,121,121,121,121,121,121,122,121,122,122,122,122,120,120,122,121,122,121,121,120,120,120,121,121,122,121,121,122,120,120,121,121,122,122,121,121,120,119,114,120,122,121,121,121,119,120,124,121,121,120,121,121,119,120,121,120,122,121,121,122,121,121,121,120,121,121,121,121,121,120,121,121,122,122,121,121,120,121,122,122,122,121,121,121,121,119,121,120,121,121,121,122,120,120,121,121,122,122,121,120,119,120,120,120,121,121,121,121,121
121,122,121,122,121,121,121,120,120,121,121,122,121,121,121,120,121,122,121,121,121,121,121,121,120,122,121,122,122,121,120,118,120,121,121,121,120,121,121,121,120,121,121,122,122,121,120,120,121,122,120,122,121,121,122,120,120,119,121,122,121,121,122,120,120,122,120,122,121,121,122,120,120,121,120,122,122,121,121,121,120,121,121,122,121,121,121,119,121,122,121,122,122,122,122,120,120,121,121,122,122,121,121,120,120,121,120,121,121,121,122,119,121,122,121,122,121,121,122,122,121,121,120,122,121,122,121,119
121,121,121,121,121,121,122,121,120,121,121,122,122,121,121,121,120,121,120,121,121,121,122,121,121,122,121,122,121,120,121,122,120,121,121,122,121,121,121,119,120,122,121,122,121,122,121,118,121,121,121,122,122,121,121,121,121,122,121,121,120,121,121,121,121,127,121,122,121,120,121,120,121,117,121,122,122,121,121,120,121,123,120,121,121,121,121,120,121,122,121,122,122,121,121,121,121,121,121,122,121,120,121,120,120,121,121,122,121,120,121,120,120,121,121,122,122,122,121,120,120,122,121,122,122,121,121,120
119,121,120,121,121,121,121,120,120,121,121,122,121,121,121,120,120,121,121,122,121,121,122,121,120,121,120,121,121,121,121,120,121,122,122,122,121,121,122,121,122,122,120,121,121,121,122,121,121,122,122,122,121,120,121,120,121,121,122,122,121,121,122,121,120,121,121,122,122,121,121,120,120,123,122,121,120,121,121,120,120,121,120,122,122,121,121,119,120,115,121,122,121,121,121,119,120,124,122,122,121,120,120,121,121,123,121,121,120,121,121,121,121,121,120,121,121,121,121,120,121,122,121,121,121,121,121,120
121,121,121,121,120,121,121,121,121,121,121,122,121,121,122,121,120,122,120,121,121,121,121,119,120,121,121,122,121,122,121,120,120,121,120,121,121,121,121,121,120,120,121,122,121,121,122,120,121,122,121,121,121,121,121,121,120,121,121,121,121,121,121,121,121,122,121,121,121,121,122,120,120,121,121,122,122,122,121,118,121,120,120,121,121,121,121,121,120,121,121,122,122,121,121,120,121,122,121,122,122,121,120,120,121,127,120,122,121,121,121,121,121,117,121,122,121,121,122,122,120,123,121,122,120,120,121,119
121,122,122,122,120,121,121,121,120,121,121,122,122,121,121,120,121,121,121,122,120,120,121,120,121,122,121,122,122,121,121,121,121,122,120,121,121,121,121,120,121,122,121,121,120,121,121,121,120,122,121,121,120,121,121,120,120,121,121,122,122,121,120,118,121,121,120,121,121,121,121,121,121,121,121,122,121,121,121,120,120,122,121,122,121,120,120,120,121,121,121,122,120,121,121,120,121,122,120,121,121,121,121,120,120,121,121,122,121,121,121,119,120,121,121,122,122,122,121,120,120,121,121,122,121,122,121,120
121,126,122,122,121,121,122,121,120,115,121,122,121,121,120,119,121,123,120,121,121,121,122,121,120,122,120,121,121,121,121,121,121,122,120,121,121,121,121,121,120,120,121,122,122,121,120,119,121,122,121,122,120,121,121,120,120,121,121,122,121,121,121,121,120,122,121,122,122,121,121,119,120,122,122,122,121,122,121,121,120,120,120,122,121,120,120,120,120,121,121,121,121,121,121,120,120,121,121,122,121,121,121,120,119,121,121,122,121,121,122,120,120,121,120,122,121,121,121,120,121,125,121,122,121,121,121,120
119,118,121,122,122,121,121,120,121,122,120,121,121,121,122,121,120,121,121,122,122,122,121,120,121,122,121,122,121,120,121,120,121,121,120,121,121,121,121,120,120,121,120,121,121,121,121,121,120,121,121,122,121,122,121,120,120,120,120,122,121,121,122,119,119,121,121,122,121,121,122,120,122,121,120,121,121,121,122,121,120,121,121,122,122,121,122,120,120,121,120,121,121,121,122,121,121,121,121,122,121,121,120,119,121,121,121,122,122,121,121,119,119,115,120,122,121,121,121,120,120,123,121,122,122,122,121,121
121,122,121,122,121,120,121,120,119,120,121,122,121,121,121,119,121,122,121,121,121,121,121,121,121,121,121,122,121,120,121,120,120,122,122,122,120,121,121,120,121,122,121,122,121,121,120,120,120,119,120,122,121,121,122,120,119,121,121,122,121,121,120,119,121,121,120,121,121,121,122,121,120,121,121,122,121,121,121,120,121,122,121,122,121,120,121,120,119,120,121,122,121,120,121,120,121,122,122,122,121,121,122,121,121,123,122,122,120,121,121,119,121,125,121,121,120,120,121,121,120,119,121,122,121,120,121,121
120,124,121,121,121,121,121,118,120,122,121,122,122,121,121,120,121,121,121,122,121,121,121,120,121,122,121,121,121,121,122,121,121,122,121,121,120,121,121,121,120,121,121,122,122,121,122,119,120,121,120,122,121,121,121,120,121,121,121,122,121,120,121,120,121,122,121,122,120,121,121,120,120,121,121,122,121,121,121,119,121,121,120,121,121,121,122,122,120,120,120,122,121,121,122,120,120,121,120,122,121,121,122,120,120,121,121,122,121,122,122,120,120,121,121,122,122,122,121,120,120,122,121,121,120,121,121,120
121,122,120,121,121,121,121,120,120,122,120,121,121,121,121,121,120,119,120,122,121,121,122,121,120,122,121,122,121,121,122,120,121,122,121,121,120,121,121,120,120,121,121,122,121,121,122,120,121,122,121,122,122,122,122,120,120,122,121,122,121,120,120,119,119,120,120,121,121,121,122,121,121,122,121,122,122,121,121,120,121,121,120,121,121,121,121,121,120,121,122,122,122,121,122,121,120,121,121,122,122,121,121,119,121,122,121,121,120,121,121,121,121,121,120,122,121,121,121,121,121,122,121,122,120,121,121,120
121,126,120,121,121,121,122,121,121,116,120,121,121,121,121,119,121,124,120,122,121,121,121,121,120,122,120,121,120,121,121,121,120,120,121,122,121,122,121,119,121,122,122,121,120,120,121,121,120,122,121,122,121,121,121,120,120,121,121,122,121,120,121,119,121,122,121,122,122,122,122,120,120,120,120,122,121,121,122,121,121,121,121,122,121,120,120,120,120,121,121,122,121,121,121,120,120,122,121,122,121,120,121,120,120,120,121,122,121,121,122,120,122,122,121,122,122,121,121,121,120,121,121,122,121,121,121,120
120,122,121,122,120,120,121,119,120,122,122,122,122,121,122,120,120,122,121,122,122,121,120,120,120,122,121,122,121,121,122,121,120,115,121,122,122,122,121,120,120,124,121,122,121,121,121,121,120,121,120,122,121,122,121,120,119,121,121,122,122,122,121,120,120,121,121,122,121,121,121,119,119,120,121,122,121,121,122,120,121,121,121,121,121,121,121,120,121,122,121,122,121,121,122,121,120,121,121,122,121,121,122,119,120,121,121,121,120,121,121,120,122,122,121,121,120,120,121,121,120,121,121,122,121,120,121,120
120,121,121,122,121,121,120,119,121,122,122,122,121,121,121,120,120,122,121,123,121,121,121,121,121,126,121,121,121,121,121,121,120,116,121,122,121,121,121,119,121,124,121,121,120,121,121,120,120,122,120,122,121,121,121,120,121,121,121,122,122,121,121,121,120,122,122,122,120,120,121,120,120,120,120,122,121,122,122,120,120,121,120,122,121,121,121,120,120,121,121,122,120,120,121,120,120,122,121,122,122,121,120,119,120,121,121,122,121,121,121,120,121,122,122,122,121,120,121,120,121,122,121,121,121,121,121,121
121,122,120,121,121,121,121,120,120,121,121,122,121,121,121,120,120,121,120,121,121,121,121,120,120,128,122,122,121,121,120,119,120,116,120,122,121,121,121,119,120,123,121,122,122,121,121,120,121,122,121,121,120,120,121,120,120,122,121,122,121,120,121,120,121,121,121,122,122,121,122,121,121,122,122,121,120,121,121,120,121,121,121,122,121,121,122,120,120,121,121,122,120,120,121,120,120,121,121,122,121,120,120,120,121,121,120,122,121,121,122,122,120,121,121,122,121,120,120,119,120,121,120,122,121,121,121,121
121,122,121,121,120,121,121,121,120,122,121,122,121,121,121,120,120,121,121,122,121,120,121,120,120,121,121,122,121,121,122,120,120,122,121,122,121,120,121,120,121,121,121,122,122,122,121,119,121,122,121,121,121,121,122,120,121,115,120,121,121,121,121,121,122,122,120,122,121,121,123,126,117,121,121,121,121,121,121,114,118,122,122,122,122,123,118,118,124,121,121,122,121,121,126,123,123,122,121,122,121,121,123,121,122,122,120,121,121,121,121,121,118,122,121,122,121,121,120,116,121,121,121,122,121,121,121,123
120,120,120,122,121,121,122,122,121,122,121,122,120,121,122,122,120,120,121,122,121,121,121,119,114,121,120,122,121,119,115,114,123,121,121,121,120,118,109,117,118,120,120,121,121,120,117,118,115,120,119,120,120,120,133,121,128,118,120,121,120,116,101,113,117,125,121,124,123,124,131,111,116,122,121,122,121,120,120,122,117,121,121,121,120,118,114,120,122,121,122,123,122,121,121,120,141,117,120,121,121,120,123,132,112,121,120,121,119,118,111,106,108,122,122,121,120,118,130,108,124,124,121,124,121,123,139,127
131,117,119,120,120,120,103,114,118,122,119,117,116,115,124,123,116,123,122,115,119,118,126,123,124,129,122,128,126,131,129,122,119,114,120,117,120,122,133,124,146,119,120,116,119,123,146,132,105,123,122,128,127,122,113,115,125,123,123,139,127,121,118,122,126,118,118,110,117,124,118,121,114,124,123,128,122,116,107,100,120,121,122,122,120,125,136,124,119,120,120,118,118,120,120,123,121,122,122,125,122,117,119,122,120,119,119,120,122,119,115,117,127,125,122,131,119,118,122,123,112,119,121,116,126,136,129,123
125,121,120,126,122,117,115,120,116,122,119,117,119,123,122,117,120,121,121,124,121,118,127,121,119,118,118,121,121,138,120,112,120,121,119,117,121,116,106,120,134,126,129,134,117,108,128,144,101,120,120,126,135,118,123,102,135,126,123,129,123,127,121,105,122,122,122,146,141,124,123,130,127,117,121,129,136,110,129,130,135,121,117,112,116,116,118,125,110,123,122,119,117,118,119,120,113,120,120,121,123,120,116,116,117,122,120,118,120,123,116,118,122,120,120,122,124,123,115,106,128,124,121,115,114,120,130,130
112,121,122,119,118,116,122,115,121,123,121,126,128,129,119,114,120,121,119,110,111,113,118,124,125,121,121,120,126,129,131,128,116,120,122,127,127,131,103,106,120,126,122,113,108,87,126,134,109,120,123,133,139,139,136,119,132,119,121,114,113,117,115,109,119,123,121,131,123,120,121,119,118,122,121,115,120,118,119,123,118,121,120,132,118,127,119,122,123,122,119,103,117,125,130,123,120,123,128,164,156,123,118,119,124,121,119,105,112,122,109,116,125,124,122,126,118,104,117,124,118,123,119,116,118,119,131,120
119,113,121,119,111,108,137,121,127,127,122,120,122,124,145,132,131,122,121,130,115,122,128,122,118,124,126,148,140,119,120,118,82,134,124,115,120,138,118,115,105,109,119,116,125,131,133,123,146,107,118,126,119,124,136,130,104,128,122,124,120,122,119,114,114,123,119,115,119,132,115,119,117,125,123,130,119,79,116,120,141,120,121,128,122,107,133,123,121,119,118,101,110,124,129,119,118,123,122,130,122,125,114,122,120,123,120,117,112,119,102,118,119,130,130,167,164,143,124,121,118,116,123,113,115,128,117,126
127,116,119,116,115,125,124,120,117,124,120,118,119,115,106,118,113,125,121,126,121,128,137,123,87,136,128,129,124,139,129,130,168,99,116,110,123,107,127,130,100,131,122,122,116,121,125,117,114,124,122,115,122,134,129,116,116,126,123,116,114,125,124,120,117,122,125,163,132,119,108,119,144,120,119,98,115,132,149,131,110,119,118,118,116,124,112,117,117,123,123,126,120,122,118,119,119,121,118,117,122,116,119,118,123,124,123,121,122,121,125,122,117,119,120,121,122,113,129,122,124,125,120,114,118,123,123,121
116,120,121,126,124,145,140,123,116,123,120,112,118,116,111,117,96,130,125,129,120,105,112,123,152,108,124,135,130,129,141,135,107,126,120,116,115,118,111,115,106,118,115,99,116,122,105,115,118,124,119,119,127,122,128,123,138,122,125,151,115,109,134,125,110,125,120,106,114,115,143,118,138,121,122,125,121,121,116,125,115,121,120,120,117,117,125,118,121,123,120,123,120,110,110,116,122,123,123,119,121,127,122,121,122,126,121,121,120,111,125,120,117,119,119,128,117,114,110,119,116,121,120,112,116,100,122,120
108,123,122,129,122,141,121,113,130,108,117,115,120,117,115,131,122,130,123,122,125,136,124,123,134,121,124,117,115,91,130,124,117,122,120,131,136,135,123,119,108,117,120,128,116,101,140,119,131,118,120,119,117,120,138,125,119,130,125,135,131,118,115,120,119,116,120,115,109,95,118,121,127,128,124,126,125,131,133,118,118,117,115,107,115,119,117,117,122,127,128,120,120,119,122,121,121,122,121,133,119,118,121,120,121,123,119,121,126,124,117,122,107,124,122,136,114,107,109,114,153,114,123,127,126,117,119,124
118,123,121,118,123,136,117,117,114,123,122,124,119,115,135,126,121,123,123,126,126,117,128,121,120,121,120,121,116,120,127,121,125,123,122,128,121,116,120,121,117,118,119,111,128,131,141,131,132,122,119,122,112,112,77,112,116,120,121,117,117,112,126,120,115,122,122,134,129,130,122,119,133,120,116,110,117,118,105,118,122,122,123,131,124,129,128,123,120,122,122,124,119,110,120,120,119,119,116,113,119,124,121,123,115,123,127,137,123,118,117,116,121,122,117,110,119,130,116,119,118,119,120,122,124,126,130,124
140,120,122,127,122,126,130,131,112,119,122,124,128,121,129,123,118,123,122,125,119,115,115,116,117,123,119,112,119,122,118,120,113,120,122,115,121,115,127,126,160,110,121,125,114,110,120,127,118,129,123,125,125,131,146,127,114,118,117,113,119,117,116,116,122,128,126,121,118,121,117,120,123,116,121,125,126,118,136,128,118,124,120,115,117,117,110,116,118,119,118,118,121,119,125,119,123,124,133,178,123,122,127,121,120,120,116,112,122,128,113,117,119,120,119,121,125,130,122,119,105,125,123,122,117,103,112,117
149,113,120,126,126,132,140,130,115,122,121,124,120,115,124,118,114,124,121,120,119,118,107,113,114,118,119,120,120,118,113,118,129,129,120,113,119,116,110,120,109,112,124,132,124,120,126,122,121,123,122,129,121,135,130,123,115,120,120,119,118,117,128,116,123,121,123,120,121,118,112,122,123,125,125,131,123,128,125,120,118,121,120,118,121,107,115,120,120,119,120,128,115,109,100,115,122,121,121,119,118,112,109,114,118,120,119,121,121,119,108,113,109,123,122,125,121,125,119,114,141,120,120,119,123,121,125,125
117,125,121,114,119,115,128,122,134,125,124,132,127,124,126,124,111,122,123,123,114,109,112,116,118,120,122,123,124,130,126,123,123,124,120,121,119,116,123,121,117,114,117,118,116,112,118,121,125,126,122,119,121,124,129,128,119,124,126,127,130,143,115,121,141,122,119,119,106,78,107,120,107,114,119,106,114,115,129,120,115,126,121,122,122,123,124,117,120,126,123,122,122,120,126,121,115,121,121,121,120,119,118,121,129,121,120,121,119,117,111,121,124,123,123,120,124,125,125,124,113,120,118,121,117,104,119,115
118,122,123,116,119,119,133,123,123,120,123,133,123,119,123,119,119,121,118,113,121,121,113,118,127,122,121,113,112,113,125,124,119,115,121,130,125,111,105,118,113,124,118,109,117,123,106,113,125,122,130,157,124,123,121,121,124,121,119,109,118,114,126,124,122,122,126,140,123,121,112,120,123,123,118,114,116,112,128,120,125,125,123,125,129,128,119,121,120,125,123,121,120,116,115,120,123,125,121,122,124,142,139,125,114,116,122,116,119,123,110,117,112,121,120,120,121,111,121,119,119,123,121,118,117,129,119,119
119,120,118,118,112,90,102,116,119,121,122,132,116,113,120,122,124,123,121,128,124,129,118,122,113,116,122,133,133,127,122,118,123,127,126,120,114,115,115,121,135,116,118,119,116,107,122,122,118,124,120,118,123,136,129,130,109,121,121,123,121,121,120,118,122,120,117,112,122,122,112,118,116,122,130,154,129,122,129,123,114,126,123,124,122,125,107,117,122,118,121,121,121,111,119,118,120,123,120,125,125,133,132,122,120,121,124,121,119,111,109,119,124,122,120,122,121,133,132,120,114,124,123,123,121,113,114,118
118,121,121,122,122,122,121,125,132,112,116,115,117,105,106,116,121,126,123,121,118,120,129,122,115,125,122,121,133,121,118,117,126,112,115,119,118,122,123,124,119,123,121,122,119,109,128,120,117,125,121,122,120,115,113,117,120,109,118,105,115,110,116,120,120,127,125,143,129,127,124,117,120,123,120,112,126,124,130,125,120,123,119,112,112,107,129,124,118,119,120,136,132,128,119,120,115,124,119,118,115,123,101,116,146,115,122,124,130,135,136,130,109,126,123,123,120,109,109,116,131,119,117,116,123,130,119,121
118,122,126,131,118,104,123,121,117,119,120,121,124,126,124,122,125,123,119,117,118,117,111,117,109,121,122,124,122,136,120,110,136,117,126,132,120,122,129,132,119,122,125,127,126,129,147,130,115,122,119,114,118,114,89,111,123,122,123,122,126,142,134,118,118,122,120,112,119,114,123,120,135,124,123,123,123,125,123,123,118,123,121,120,121,122,112,117,117,119,121,124,122,126,115,117,107,123,122,123,124,117,125,114,126,119,115,109,117,120,113,119,123,125,127,135,119,118,114,119,128,122,121,115,118,101,125,125
118,123,123,140,135,152,110,114,118,123,121,118,119,111,122,120,111,125,119,111,122,123,122,120,130,109,120,124,115,105,126,127,119,125,126,133,123,124,117,121,118,121,118,116,118,127,125,119,121,123,121,123,121,132,115,116,121,122,123,120,121,122,114,119,126,122,125,126,120,119,127,125,120,123,119,120,123,120,127,122,121,121,119,114,118,124,109,116,101,124,121,124,122,112,122,119,141,119,121,121,122,130,119,121,118,126,122,128,122,110,102,111,127,116,119,120,121,124,117,122,125,125,127,130,123,113,124,120
126,126,120,115,117,119,118,119,114,119,120,122,123,133,130,121,117,116,122,123,125,116,124,123,130,122,118,108,119,115,120,120,122,122,124,134,122,121,121,119,121,121,119,115,117,106,121,121,118,122,119,116,125,117,123,122,113,124,120,120,118,119,124,116,133,116,124,132,128,135,135,126,125,123,118,126,113,105,112,119,121,125,125,123,120,120,120,119,116,120,116,119,122,120,120,115,106,123,125,117,119,135,134,118,143,112,121,125,120,118,113,124,117,124,122,122,119,123,91,113,117,122,120,123,125,132,121,119
125,127,123,125,119,114,119,121,120,114,123,132,123,113,129,124,123,123,121,116,127,130,126,119,119,123,125,126,123,122,119,120,122,122,121,118,116,111,120,121,115,124,123,128,125,126,127,120,124,116,118,119,117,121,117,121,126,118,120,116,119,116,125,121,117,123,123,120,119,121,124,122,120,123,121,124,123,122,113,119,121,122,122,123,118,114,114,121,118,124,119,116,119,120,120,117,108,112,118,123,123,130,114,114,149,116,121,128,123,123,132,132,109,125,120,113,119,131,130,118,118,123,120,124,120,101,117,120
123,124,123,128,118,119,120,120,113,114,116,111,120,122,119,121,120,124,125,133,118,116,108,116,119,122,120,126,123,117,102,114,119,125,121,111,113,115,126,119,120,122,120,123,125,124,125,118,118,119,120,123,123,119,124,123,120,120,120,120,124,119,114,119,125,122,123,122,124,122,118,119,119,118,116,117,119,122,123,126,121,123,125,125,123,122,120,120,119,125,120,121,122,123,136,118,115,104,116,114,120,114,118,122,117,127,126,127,117,113,126,121,105,125,118,114,118,117,111,119,131,119,120,122,125,137,119,120
136,115,122,132,120,108,128,130,111,116,118,114,122,125,134,123,116,126,124,121,118,119,126,119,124,121,119,118,122,134,124,124,123,124,123,122,119,111,129,125,119,119,120,121,124,119,119,118,122,124,122,121,129,109,124,119,126,124,123,125,121,109,122,124,117,119,119,122,121,124,124,118,116,123,123,114,121,128,115,122,120,121,120,133,120,113,114,118,120,123,122,122,121,129,136,121,122,123,124,119,126,125,130,123,115,123,121,120,121,117,111,118,113,120,120,128,125,124,126,122,136,125,122,118,123,129,121,124
114,112,119,127,120,122,129,121,122,125,122,124,121,115,121,122,116,122,119,117,120,113,136,120,116,123,119,118,122,122,123,120,122,114,122,124,121,119,127,120,125,124,119,120,121,111,120,122,118,122,122,122,124,130,137,122,121,121,120,119,119,116,132,128,115,118,119,118,114,121,115,117,128,123,120,120,124,115,147,126,123,120,122,130,126,125,122,122,118,123,121,120,119,120,114,119,116,123,119,122,119,115,115,118,120,113,117,118,119,134,132,121,120,122,120,122,116,108,120,120,119,121,122,121,128,129,117,121
124,123,122,129,121,118,119,117,115,123,116,117,116,105,121,120,130,119,126,120,120,123,124,123,121,115,117,121,121,123,125,119,122,125,122,120,118,119,116,122,117,121,117,116,123,122,134,119,120,122,123,133,133,123,123,121,117,119,120,116,117,116,123,120,127,119,124,125,121,121,117,122,113,123,120,119,118,112,121,115,121,121,119,117,120,126,114,119,125,121,124,132,122,124,125,123,115,121,120,114,121,117,111,117,115,121,119,126,116,115,119,119,137,126,123,122,121,116,117,124,114,112,121,128,122,123,112,120
114,123,123,121,117,121,115,119,125,125,122,119,118,121,112,121,118,122,120,119,120,123,134,122,111,122,121,116,110,104,116,119,128,122,119,121,125,138,127,123,117,116,123,129,123,128,122,117,123,126,121,120,120,110,115,121,121,125,120,113,116,116,119,119,118,114,120,119,118,122,116,118,124,124,121,120,121,116,122,121,120,121,121,120,120,119,110,117,120,123,119,119,123,124,114,117,120,123,121,119,123,120,124,120,107,128,125,122,120,115,112,113,129,99,110,105,118,119,123,124,120,124,124,123,123,123,124,123
115,122,118,117,117,125,114,117,121,123,120,120,123,118,122,119,125,120,121,122,119,119,133,120,108,119,120,116,120,126,109,114,126,121,116,117,117,118,117,117,116,117,121,126,123,124,136,123,122,124,123,120,122,132,124,119,130,122,122,122,121,104,131,128,118,123,122,123,126,121,123,116,125,118,121,124,117,116,117,119,116,120,120,121,125,139,125,118,125,123,121,121,125,137,129,122,113,121,119,119,118,114,119,118,121,112,120,125,120,119,119,119,114,126,121,118,124,132,99,113,134,123,126,135,117,106,120,121
125,120,120,113,124,125,124,122,111,125,121,129,115,109,116,116,126,120,121,117,115,108,112,119,123,123,120,121,122,129,130,121,118,123,120,125,116,123,108,113,121,123,122,120,125,116,114,119,120,120,121,117,118,117,125,119,120,121,122,124,120,125,118,120,120,121,121,120,120,114,126,122,106,121,117,118,121,120,120,117,129,120,122,123,117,118,129,127,115,119,122,124,133,128,133,125,141,123,123,127,121,120,114,117,125,125,122,120,122,117,119,123,126,122,121,125,129,129,146,125,106,128,126,126,116,108,113,114
137,108,116,114,122,123,132,123,111,122,123,122,120,124,116,115,117,121,120,124,123,118,125,118,122,118,116,115,115,115,120,127,107,128,123,120,121,113,113,115,138,110,116,118,118,119,131,128,118,126,124,123,120,120,126,120,121,123,121,123,123,116,141,132,119,121,118,119,126,138,118,119,120,121,121,116,111,110,126,119,135,116,120,132,123,118,115,118,119,126,123,130,121,133,122,117,118,122,119,118,121,115,125,122,122,122,120,120,121,125,121,118,113,117,119,119,116,114,120,119,125,124,122,120,121,116,107,115
127,125,123,123,121,116,127,124,117,120,118,114,118,107,118,120,116,122,120,123,121,116,121,116,118,126,125,137,124,126,126,124,138,115,119,127,120,126,118,121,122,125,124,130,128,114,116,122,115,122,120,117,118,130,122,117,116,122,118,123,127,119,129,122,135,121,122,121,121,121,117,123,119,123,123,126,119,119,120,120,119,121,120,120,124,124,125,127,124,124,119,119,116,122,111,116,122,118,121,115,120,120,119,124,129,123,123,126,134,135,140,123,116,123,120,118,118,119,107,118,115,118,120,123,124,122,132,117
125,123,121,123,117,119,131,133,123,120,121,125,134,129,120,118,123,124,123,126,130,130,117,120,122,122,119,108,115,119,121,118,115,121,131,158,124,118,123,119,117,120,119,124,120,125,120,124,122,115,121,119,116,116,128,119,130,125,122,123,123,123,114,126,122,125,122,122,125,133,126,119,112,122,118,119,114,104,113,117,129,118,118,116,120,122,113,118,119,126,128,137,128,128,128,120,124,124,120,116,114,114,116,122,117,116,117,115,117,105,120,117,121,123,126,144,121,120,125,118,123,122,118,113,114,101,119,124
117,119,120,122,116,116,115,115,124,128,122,119,119,118,124,124,125,121,120,120,121,117,118,125,122,122,120,122,122,122,125,121,117,122,120,116,115,116,124,116,118,123,121,126,126,145,121,117,117,119,120,117,120,123,121,122,127,121,122,127,117,114,110,114,114,118,121,125,120,124,101,108,119,121,119,119,116,105,114,119,120,122,122,120,129,130,115,121,114,123,120,122,117,136,122,117,130,120,120,118,119,114,126,125,129,121,122,127,124,124,121,123,117,123,120,123,119,121,106,116,122,125,122,120,122,124,120,126
121,121,119,116,117,122,119,118,120,123,128,137,143,129,111,117,119,119,117,117,120,121,122,116,120,123,123,119,112,122,123,120,121,127,120,121,124,116,117,117,122,121,123,124,121,122,118,115,114,110,116,116,117,120,120,117,131,127,123,120,124,125,130,122,120,123,124,139,125,118,119,118,119,124,125,133,122,126,124,116,116,118,123,126,122,103,122,120,129,128,124,128,125,128,129,129,115,120,118,116,118,121,111,112,120,123,124,124,121,130,112,116,117,124,118,109,120,108,130,123,121,118,120,126,119,130,129,121
121,122,119,119,122,129,112,123,121,123,122,118,120,109,133,120,119,121,123,126,128,124,121,120,123,121,123,119,119,120,122,121,120,121,117,116,120,121,111,113,126,127,120,119,129,118,120,123,109,112,118,117,118,130,129,117,134,124,123,127,120,104,124,118,113,122,120,118,123,135,123,121,118,123,121,121,120,120,115,114,117,119,118,116,120,122,120,115,116,123,126,136,120,112,114,119,124,121,120,123,119,130,144,136,116,119,115,114,119,119,115,114,117,117,119,116,117,122,125,118,119,122,121,122,119,111,106,113
113,121,119,120,121,129,131,122,131,120,121,120,117,117,125,120,121,123,121,118,115,112,118,118,120,122,120,124,111,104,122,122,121,123,125,121,125,129,123,124,117,119,120,122,123,128,135,119,122,127,118,116,119,121,111,116,123,116,120,120,114,116,115,118,118,122,120,122,126,129,130,121,129,125,120,114,119,116,127,130,107,122,123,121,121,117,116,115,132,120,120,122,124,121,118,123,116,121,121,119,120,119,117,116,121,122,122,124,121,126,124,124,128,125,120,119,127,118,126,129,123,124,121,128,127,133,128,116
127,125,130,137,121,114,128,128,123,124,119,117,125,126,127,123,117,123,124,124,130,133,119,120,127,122,116,112,115,101,118,114,118,117,120,128,122,123,117,117,118,121,120,116,114,127,118,116,121,122,121,123,121,117,121,119,113,116,118,117,118,116,118,115,129,119,122,125,126,125,127,124,107,120,118,120,119,119,116,113,132,119,120,115,119,117,120,122,123,124,120,122,114,107,122,123,112,123,122,123,122,123,106,110,113,124,117,112,122,134,129,129,135,113,122,128,121,110,121,121,117,123,119,117,118,119,114,116
117,122,119,117,122,118,121,115,121,120,121,121,121,119,117,120,118,125,123,128,117,120,126,118,130,119,122,126,120,112,122,131,114,121,121,122,124,122,128,123,124,122,117,108,117,111,129,127,118,124,129,136,125,123,129,115,119,120,117,109,119,121,115,123,133,120,122,128,120,127,114,117,117,121,118,119,110,100,111,119,111,125,121,121,120,116,127,118,126,120,119,121,118,120,113,116,119,118,118,115,120,124,123,133,119,123,124,138,121,113,120,119,129,123,120,115,112,109,116,117,118,119,116,121,123,129,123,120
117,117,119,129,127,118,112,115,120,123,123,122,112,129,130,119,120,123,120,123,120,115,121,120,128,123,121,121,121,132,128,122,132,120,123,123,127,124,126,124,110,116,122,126,123,120,122,118,133,123,120,116,120,120,135,147,119,128,124,124,120,122,111,116,120,117,120,119,120,130,124,116,116,122,119,112,121,119,110,118,126,124,125,123,118,119,121,126,116,122,120,119,124,129,115,109,125,119,116,110,118,130,112,116,123,120,120,124,118,119,129,125,120,121,119,117,117,98,108,113,119,121,121,127,133,137,129,120
122,122,118,121,111,112,130,133,121,120,118,119,120,118,123,115,118,123,124,125,125,124,125,120,121,120,117,111,113,117,121,121,121,126,124,129,118,116,117,116,124,117,123,139,121,128,117,120,112,120,118,113,117,111,116,112,123,126,119,119,121,129,115,118,135,119,123,134,119,100,131,131,110,122,122,121,119,122,126,117,119,122,119,119,122,129,116,115,121,121,116,103,121,123,121,119,126,117,119,124,118,121,130,125,117,121,122,123,121,120,103,110,119,127,117,115,125,129,121,120,120,115,125,133,124,114,129,131
131,121,119,115,110,117,119,121,116,123,119,118,111,124,117,116,119,122,122,123,122,116,134,119,122,121,119,122,125,137,120,127,119,121,125,123,121,115,127,123,119,120,120,117,117,119,114,122,128,123,123,122,119,119,118,118,122,125,120,123,118,121,121,122,114,121,123,122,121,107,116,114,120,119,124,127,129,130,129,123,124,121,119,117,120,126,114,114,116,121,121,118,127,126,120,119,122,125,126,122,104,99,135,135,119,123,119,118,125,121,115,117,117,118,123,120,122,133,139,123,119,120,115,116,116,117,129,117
118,123,123,131,132,118,124,126,119,122,121,120,118,125,108,113,125,126,124,124,122,113,127,122,128,117,120,120,123,133,138,125,109,121,117,111,111,114,119,122,126,125,123,136,128,122,136,125,118,131,126,130,118,117,124,119,137,110,119,118,114,121,131,132,110,125,122,127,126,143,123,116,117,119,117,109,120,117,123,121,92,121,115,114,117,112,116,110,143,116,122,127,123,127,131,133,107,120,120,123,123,121,124,114,118,125,122,121,135,128,120,120,119,124,121,121,118,118,120,124,118,124,122,121,122,122,125,113
119,121,120,119,127,121,117,124,122,121,116,123,120,123,127,130,128,130,125,139,115,117,124,122,114,117,117,114,119,115,112,107,116,123,122,120,121,117,121,123,128,115,117,116,124,128,128,123,119,127,119,109,106,106,127,113,137,124,123,137,136,134,120,124,117,123,120,114,119,111,123,125,120,124,126,135,116,120,117,116,110,113,118,116,115,110,123,114,121,123,120,120,123,121,116,124,109,125,120,121,120,127,123,116,136,115,119,123,118,114,106,116,138,114,116,113,116,112,128,134,116,122,119,120,118,120,118,117
121,126,123,126,129,138,116,112,119,123,119,123,135,134,137,132,121,113,117,113,121,122,108,110,122,128,120,115,117,115,123,126,123,118,122,130,124,127,116,116,121,124,122,115,119,111,115,127,114,122,121,127,141,134,132,120,129,121,120,118,124,123,110,114,116,118,116,113,119,114,121,119,119,121,122,121,120,123,124,132,125,124,121,120,122,136,127,117,118,119,118,116,120,121,105,114,116,120,117,112,112,111,121,119,129,123,122,135,130,141,132,135,114,117,122,122,118,117,118,114,116,125,122,120,130,123,132,128
119,120,119,114,117,117,115,115,118,123,125,130,117,118,139,126,122,116,117,116,124,130,113,118,118,123,123,126,118,125,136,123,131,120,119,116,125,132,114,119,109,123,122,122,118,109,120,120,131,125,126,147,125,120,114,120,127,125,122,117,110,111,124,121,111,120,121,120,127,131,106,113,114,124,121,125,126,129,122,128,110,122,120,115,115,100,117,120,125,117,120,107,121,149,135,119,123,124,119,121,114,119,118,121,117,124,124,118,125,128,124,116,126,125,127,128,133,110,129,118,119,119,119,117,119,123,122,126
120,123,122,136,128,136,132,125,109,124,120,112,117,116,118,115,123,116,124,138,125,128,124,122,110,112,116,111,112,112,111,110,131,121,124,121,123,116,133,123,116,125,122,113,123,122,135,131,115,118,111,109,108,110,106,116,123,123,123,118,120,135,133,114,133,117,119,127,121,126,107,123,115,131,125,136,124,113,119,120,111,122,124,125,137,124,126,110,99,125,119,119,113,106,122,110,141,103,113,121,127,123,122,135,107,130,128,146,125,115,115,110,117,123,125,116,111,113,124,123,130,122,119,118,122,115,120,121
120,122,120,121,121,129,119,133,130,125,127,131,121,109,125,123,122,120,119,121,135,130,120,130,121,123,120,121,119,111,120,116,115,124,118,123,116,121,117,120,126,115,117,114,121,113,131,125,98,121,123,131,120,119,131,119,143,115,119,123,134,122,123,122,113,128,122,118,115,117,113,122,113,118,119,119,122,127,117,109,130,126,119,108,122,124,115,120,111,116,122,120,121,122,126,113,122,119,120,115,118,120,103,124,115,124,118,110,113,104,100,105,111,122,123,133,128,110,114,114,127,118,119,116,116,116,124,125
121,116,117,122,116,112,134,117,130,125,122,118,122,122,122,129,112,119,121,126,122,114,116,111,117,122,115,113,115,119,127,132,118,117,119,118,117,113,115,113,121,121,121,124,127,125,116,122,117,117,122,125,132,121,120,117,124,125,120,117,114,115,111,119,120,121,122,122,121,117,122,119,128,125,121,122,122,117,118,120,129,124,127,136,119,118,132,131,117,122,116,115,118,125,115,108,120,125,124,123,119,119,119,125,120,122,122,116,117,107,118,114,115,119,120,113,125,142,115,117,118,122,124,133,114,123,110,111
120,120,118,115,122,121,123,119,111,120,123,128,117,119,126,126,135,120,121,126,122,123,122,126,116,123,124,128,128,109,117,117,121,126,122,122,118,117,113,120,125,128,121,120,121,118,110,118,122,113,119,121,120,121,128,118,119,126,118,113,115,110,111,115,118,122,123,126,123,116,124,126,120,125,120,114,115,128,117,118,119,123,120,111,114,120,123,124,123,122,123,133,120,107,125,131,122,124,121,117,130,127,122,118,117,116,118,113,120,130,117,121,115,121,121,127,126,126,125,114,121,119,114,114,118,114,115,125
117,127,129,130,115,121,117,123,104,117,118,119,114,105,122,110,142,111,114,108,120,131,125,129,117,121,127,127,122,118,124,117,116,120,116,112,116,127,142,124,120,128,123,120,113,122,131,124,116,116,118,118,118,121,120,114,135,113,119,121,122,116,123,129,130,123,125,130,125,126,130,121,118,119,116,114,114,111,116,109,119,126,129,147,132,136,111,125,116,120,114,109,116,111,122,120,122,118,119,120,119,120,121,114,122,124,122,127,113,110,114,117,116,120,123,141,127,135,119,111,122,122,120,111,121,114,121,121
119,120,118,113,110,107,126,111,128,124,117,102,113,107,116,112,118,117,127,148,124,116,122,130,130,123,120,120,129,131,128,138,118,130,120,115,118,114,120,109,134,118,117,113,120,125,118,120,115,125,125,133,127,129,125,133,143,116,117,119,120,116,135,123,113,123,120,115,120,114,114,107,110,123,122,121,118,118,111,116,117,118,118,132,125,123,128,114,144,126,127,125,131,114,136,178,115,122,121,130,120,126,114,116,115,120,118,101,110,114,119,112,125,120,118,113,121,111,126,117,114,123,121,107,112,125,109,106
125,124,129,129,120,122,120,121,129,112,117,121,118,116,114,147,111,120,119,120,120,117,117,110,105,126,116,109,116,120,118,126,122,117,125,132,111,101,125,128,131,121,120,113,120,117,128,120,115,124,122,126,126,125,129,119,120,118,118,119,122,122,117,112,117,123,121,118,143,115,124,126,124,122,121,118,121,127,112,115,119,124,127,132,124,106,124,121,122,120,117,124,123,121,121,119,123,119,123,124,119,125,125,116,124,122,120,104,118,119,126,134,119,120,117,120,122,123,117,118,118,126,122,136,133,137,128,116
100,121,125,119,121,125,97,104,141,108,117,114,123,126,135,139,122,124,119,135,121,109,127,133,112,123,122,118,114,117,116,117,120,121,120,121,116,103,115,117,121,126,120,110,120,129,121,117,113,115,121,126,119,115,118,118,134,108,113,102,114,141,115,122,114,123,120,121,123,113,124,119,112,119,121,135,123,140,116,106,138,121,118,111,115,100,122,121,118,124,123,126,121,121,128,116,117,120,119,126,125,123,127,116,119,122,124,126,115,99,120,124,126,120,123,121,126,131,112,128,116,122,122,121,122,119,112,108
117,124,118,113,122,120,112,121,131,118,122,134,115,121,123,125,115,123,123,122,136,124,127,122,109,119,120,127,120,124,115,105,135,126,126,138,118,106,128,141,132,117,116,111,119,131,117,131,113,125,120,118,117,106,128,124,122,121,118,123,119,132,123,119,119,120,122,117,120,129,121,118,120,123,118,126,114,115,126,121,122,125,125,121,119,113,124,118,118,114,120,118,125,122,124,122,125,125,120,120,121,127,113,111,121,121,116,109,110,115,134,124,121,124,126,133,135,130,120,119,116,122,121,118,120,112,135,125
115,120,122,125,122,132,110,116,120,123,119,116,117,109,128,117,118,128,126,132,133,126,122,119,108,119,121,122,122,123,125,104,126,123,122,122,121,126,120,125,110,116,114,115,121,122,115,104,127,122,121,122,118,123,119,123,116,119,119,125,119,121,121,116,99,130,124,129,126,132,119,111,155,101,121,131,122,124,128,135,114,129,124,119,119,114,122,124,114,122,119,117,119,127,124,118,134,125,119,115,116,109,117,128,101,115,121,125,122,125,118,107,140,118,120,120,117,114,125,136,113,121,117,119,122,127,118,112
118,121,117,112,119,116,119,117,118,118,118,120,114,120,110,103,125,119,117,116,120,123,113,127,126,122,122,127,119,120,128,111,122,122,119,112,124,119,119,113,116,121,118,121,120,117,111,112,121,124,124,129,124,122,129,124,124,119,123,119,122,122,124,116,121,127,121,117,113,114,113,120,120,121,119,118,123,130,129,117,123,121,118,118,110,107,124,116,105,124,121,112,125,130,124,118,132,117,122,138,119,116,121,121,117,119,114,108,107,107,112,114,125,123,124,128,127,130,139,131,115,127,126,134,120,110,110,101
118,107,117,113,122,124,113,147,119,125,122,120,119,116,123,115,119,123,121,123,121,129,123,124,103,123,117,108,125,125,111,113,132,119,124,143,124,116,132,130,116,117,118,112,126,119,117,111,118,118,120,112,115,117,112,121,121,128,118,118,120,117,121,116,100,108,126,133,135,142,130,122,133,125,120,118,125,109,115,128,116,125,122,122,114,120,125,104,116,121,121,126,122,114,117,119,121,122,122,129,120,120,125,114,124,120,119,114,120,124,120,119,116,121,122,129,126,119,120,120,115,121,121,119,119,114,112,117
127,121,122,131,122,133,108,118,114,120,121,128,126,128,140,119,123,122,120,117,125,116,115,123,121,127,125,127,125,130,138,120,119,109,115,115,122,126,118,124,118,119,126,141,122,115,118,117,117,125,121,128,123,129,126,115,118,122,117,109,117,122,109,121,127,121,122,128,113,120,123,131,118,119,124,136,125,122,109,103,127,121,117,125,121,121,116,123,118,121,119,116,121,120,126,114,110,119,121,123,133,119,124,111,122,124,124,122,116,122,119,117,112,119,119,119,122,122,122,116,124,121,121,135,124,122,124,119
116,125,120,116,124,124,128,118,123,120,119,126,120,116,123,119,122,128,128,126,119,123,124,118,124,119,122,122,125,105,121,120,116,123,119,119,123,120,113,119,126,126,121,120,120,119,121,113,110,119,124,133,115,119,121,120,122,122,120,123,129,129,130,119,119,120,123,124,126,129,111,117,116,122,121,126,113,112,130,115,111,125,125,150,122,121,124,126,140,119,126,126,125,129,118,134,116,124,121,116,118,118,122,116,120,121,120,119,125,119,120,117,122,124,124,123,117,126,121,117,126,115,119,120,121,113,120,130
112,120,121,125,121,122,118,120,129,129,124,133,108,115,117,134,111,113,116,115,123,124,119,123,121,116,120,133,117,108,120,121,128,123,122,119,126,126,123,123,113,119,116,113,124,129,109,110,123,122,121,121,116,107,121,133,118,124,120,119,127,134,119,111,129,116,118,118,115,117,111,124,115,124,122,136,128,108,130,114,119,123,119,114,116,112,111,128,114,121,120,119,118,136,135,114,125,116,129,139,118,105,120,125,122,122,121,123,123,125,135,124,119,118,117,112,120,119,110,114,119,120,121,122,119,123,125,119
122,119,118,118,120,118,124,114,122,123,120,121,121,122,120,128,124,120,120,119,125,126,131,121,117,121,121,121,116,123,125,123,128,119,119,112,124,123,123,125,108,120,121,133,120,117,123,129,135,119,121,122,125,131,131,123,121,124,120,116,119,114,114,119,112,122,124,135,132,131,127,117,125,124,120,123,121,119,126,121,134,117,121,114,124,130,126,124,116,120,116,115,117,105,108,107,124,125,122,123,128,129,125,138,117,125,123,133,128,140,118,116,119,117,117,112,120,119,112,116,113,118,122,134,119,123,126,114
129,121,121,122,131,127,121,128,119,124,123,115,128,127,117,114,119,121,120,121,122,125,129,119,122,123,122,123,122,122,125,123,113,123,121,118,120,119,120,119,129,112,117,123,122,119,127,125,115,122,118,110,118,120,113,114,122,119,119,119,111,99,125,118,120,125,120,128,124,121,122,128,107,121,122,121,119,114,119,123,127,118,121,125,125,131,130,120,116,122,119,123,122,114,122,121,117,121,121,126,121,124,108,115,124,117,119,116,120,129,120,116,118,123,122,122,128,124,130,129,121,121,121,114,115,130,89,104
108,113,119,120,115,121,137,126,123,125,124,148,122,113,108,122,119,121,117,116,117,116,117,116,122,124,124,122,125,127,109,116,128,117,118,121,120,108,110,121,123,123,122,125,123,143,128,117,120,123,121,123,133,129,119,127,114,122,116,115,119,119,124,119,120,112,123,125,118,113,115,112,128,127,125,139,120,124,130,130,126,121,120,121,112,115,122,119,122,122,122,124,125,126,117,116,120,120,121,120,119,119,125,121,115,121,119,116,118,121,116,112,125,118,117,124,117,115,127,123,116,123,124,130,126,125,119,111
110,125,117,118,121,122,112,116,133,108,116,107,121,128,114,118,125,122,120,118,125,124,129,122,118,130,125,121,116,111,119,119,108,112,119,119,124,134,138,118,122,122,119,118,120,127,125,121,109,119,119,121,122,107,136,121,129,121,118,112,118,120,115,116,124,125,125,138,125,103,132,130,111,123,120,114,123,128,127,110,143,116,116,113,111,107,117,120,115,123,120,119,125,128,116,120,119,121,120,117,126,133,134,126,115,123,121,127,113,109,109,112,124,117,123,113,124,126,132,122,117,120,121,133,131,136,112,112
112,124,122,127,119,115,115,112,133,122,120,118,124,125,137,133,108,118,121,122,117,109,112,113,110,119,120,122,126,132,109,113,139,121,122,122,121,120,139,122,113,117,116,112,118,117,108,131,120,121,125,134,124,125,127,121,125,125,121,127,120,122,117,117,117,121,122,132,123,118,119,119,120,120,121,119,120,124,115,115,123,121,121,120,115,118,125,135,107,121,117,113,119,120,123,111,135,121,129,135,122,119,124,128,105,124,120,118,118,117,121,117,137,119,118,115,130,124,130,128,125,116,125,121,118,119,110,123
110,127,117,116,122,132,124,115,134,122,126,119,123,104,105,117,118,117,117,119,124,132,126,118,120,121,122,121,116,114,119,120,121,122,119,119,125,123,125,123,121,122,121,122,122,122,110,117,119,117,118,116,115,122,125,124,113,121,118,120,119,116,111,112,127,119,120,122,121,127,121,124,120,122,120,120,123,123,126,121,123,126,121,119,120,114,121,123,119,116,121,119,124,120,121,119,121,112,121,130,127,129,126,115,115,125,121,120,122,124,122,118,118,123,120,115,118,120,119,118,118,121,120,127,131,130,119,119
119,119,121,128,118,115,122,116,119,121,123,122,133,122,118,115,122,121,122,123,114,118,124,127,120,122,116,120,121,123,120,115,122,123,123,123,123,121,124,124,120,122,124,123,121,120,119,115,120,122,125,118,113,124,121,120,120,120,117,119,119,119,119,118,122,122,123,122,122,121,120,122,120,124,120,121,122,128,120,119,120,118,121,122,121,121,118,120,121,124,121,122,121,122,122,121,121,122,120,122,120,120,122,119,121,122,122,121,122,121,121,119,122,123,123,123,124,126,124,124,120,121,121,122,128,120,120,119
119,121,122,125,137,122,120,117,120,121,119,118,100,115,121,118,120,122,124,125,127,124,122,119,123,121,118,124,135,126,124,126,123,123,125,129,141,128,125,124,119,121,122,119,115,116,119,117,119,121,121,121,119,126,118,114,121,122,122,119,118,119,119,125,120,122,118,119,109,118,120,112,122,120,121,119,119,120,119,121,120,122,122,124,117,112,117,119,122,121,123,124,126,130,133,151,124,124,124,130,127,125,126,133,122,122,122,127,157,129,121,116,120,122,121,122,118,122,119,119,121,122,121,122,118,122,123,123
119,120,120,122,125,121,122,120,121,121,119,119,119,120,121,121,119,120,123,123,121,121,121,118,117,122,121,118,106,119,121,116,120,119,119,126,141,125,123,129,123,122,118,120,115,120,121,121,123,122,122,121,118,121,122,122,114,121,121,124,121,121,120,114,123,122,120,121,130,123,122,125,125,119,116,116,118,119,120,123,117,120,120,122,114,117,118,113,123,121,124,121,114,115,122,133,121,123,127,124,125,124,126,118,119,119,109,121,135,122,119,117,120,123,127,122,118,121,122,121,121,121,122,122,120,122,122,118
120,121,120,121,122,121,121,118,120,121,120,120,121,122,121,117,121,120,116,121,126,122,122,124,119,120,122,125,121,121,121,118,120,122,121,122,121,122,122,120,121,123,122,122,121,121,122,120,121,121,119,121,122,121,121,121,120,122,123,115,107,119,121,120,119,119,113,116,112,118,120,119,120,122,124,124,121,121,121,120,121,123,124,121,120,122,122,121,120,120,123,120,116,120,121,120,119,118,117,118,110,112,118,119,120,122,121,122,123,124,121,120,119,121,124,124,120,121,121,118,120,121,121,122,121,122,121,120
121,122,121,121,120,121,121,121,120,121,122,122,121,121,121,120,120,121,120,121,121,121,121,120,121,122,121,122,121,122,122,121,121,122,121,122,121,120,121,120,120,121,121,122,122,121,121,121,120,121,120,121,121,121,122,121,121,122,122,121,120,120,121,120,119,120,121,123,124,120,121,119,120,121,121,122,121,121,121,120,121,121,121,121,121,121,121,121,120,122,122,121,121,121,121,120,120,121,120,120,122,120,122,120,120,122,122,122,118,119,120,120,120,122,121,122,121,120,121,120,121,122,122,122,121,120,121,120
121,122,122,122,122,121,122,121,119,119,119,121,121,121,121,120,120,122,121,122,121,120,121,120,121,122,122,123,121,120,120,120,121,122,122,122,122,121,120,120,120,121,120,121,121,121,122,121,120,121,120,121,121,121,122,121,120,121,121,122,121,121,121,119,120,121,121,122,122,121,120,120,121,121,122,122,122,122,122,120,121,122,121,122,120,120,121,120,120,121,121,122,121,122,121,119,121,122,121,122,122,121,121,120,121,121,120,121,121,121,122,121,120,121,121,122,121,120,121,121,121,121,122,123,121,120,121,120
121,122,121,122,121,121,120,120,120,121,121,122,122,121,121,119,120,121,121,122,121,121,120,119,120,121,121,122,122,121,121,120,120,121,120,122,121,121,122,120,121,121,120,122,121,121,121,121,121,123,122,122,121,121,122,121,120,121,120,121,121,121,121,120,120,121,121,121,120,120,121,120,121,122,121,122,121,121,121,120,121,122,122,122,121,121,121,121,121,122,122,122,122,121,122,121,121,122,121,121,121,121,121,120,119,120,121,122,122,121,121,119,120,121,121,122,121,121,121,120,120,121,121,122,122,121,121,120
120,121,121,122,122,121,120,120,120,121,120,121,121,121,122,121,121,122,121,122,121,121,121,120,121,122,122,122,120,121,121,121,120,120,121,122,121,121,121,120,120,120,120,121,121,121,121,120,120,122,121,122,121,121,121,120,121,121,120,121,121,121,121,121,121,122,121,122,122,122,122,121,120,122,121,122,120,121,121,120,120,121,121,122,121,121,121,120,121,122,121,122,121,121,121,120,121,122,120,121,121,121,121,121,120,122,121,121,120,121,121,120,120,122,121,121,120,121,121,120,121,122,122,122,120,120,121,120
121,121,121,122,122,121,121,120,121,122,121,122,122,122,122,120,120,121,120,121,121,121,121,121,120,121,120,122,121,121,122,121,120,121,121,122,121,120,120,120,121,122,122,122,122,120,121,120,121,122,121,122,122,120,121,120,121,122,121,122,121,120,121,120,120,121,121,122,121,121,120,120,120,122,121,122,121,120,121,120,120,122,121,122,121,121,122,121,121,121,120,121,121,121,122,121,120,122,121,122,122,121,121,120,120,121,121,122,122,121,120,120,121,122,121,122,122,120,121,120,121,122,120,121,121,121,121,121
120,122,121,121,120,121,121,120,121,122,121,121,121,121,121,121,120,122,121,122,121,121,121,120,120,122,121,122,122,121,122,121,121,122,121,121,120,121,121,121,121,122,121,122,121,120,121,120,121,122,120,121,121,121,122,121,121,122,121,121,120,121,121,121,120,121,121,122,121,121,122,120,120,121,121,122,121,121,121,120,121,122,121,121,121,121,121,121,121,121,120,121,121,121,122,120,121,122,122,122,121,121,122,121,120,122,121,122,122,120,120,120,120,121,121,122,121,121,121,120,120,122,121,121,120,121,121,120
120,121,121,122,120,120,121,120,120,121,121,122,121,121,120,120,121,122,121,121,121,121,122,121,120,121,121,122,122,121,121,120,121,122,121,121,121,121,121,120,121,122,121,122,121,122,121,121,120,121,121,122,122,121,121,120,120,121,121,122,121,121,122,120,120,122,121,122,122,121,121,120,120,121,120,121,121,121,121,120,120,121,121,121,120,120,121,120,121,121,120,122,121,121,122,121,121,122,121,121,120,121,121,121,120,121,120,121,121,121,121,121,121,122,121,122,122,121,122,120,121,122,121,121,120,121,121,120
120,121,121,122,121,121,122,120,120,121,121,122,121,121,121,120,121,122,120,121,121,121,122,121,121,122,120,121,121,121,121,120,121,121,120,121,121,121,122,120,120,121,121,122,121,122,122,120,120,121,120,122,121,121,122,120,121,122,122,122,121,122,122,121,119,120,120,122,122,121,121,119,120,122,121,122,121,121,121,119,121,121,121,122,121,121,122,120,121,122,121,122,120,120,121,120,121,122,121,122,121,120,121,120,121,122,121,122,120,120,121,120,121,122,121,121,120,120,121,120,121,121,120,122,121,121,122,121
119,121,120,122,121,121,122,120,120,120,121,122,122,122,122,120,120,122,121,122,121,120,121,120,120,121,121,122,121,121,121,120,121,122,121,123,122,122,121,120,120,121,121,122,122,121,120,120,121,121,121,122,121,121,121,120,121,122,121,122,121,120,121,120,120,121,120,121,121,121,122,121,120,121,121,122,122,122,122,120,120,121,121,121,120,120,121,120,121,122,121,122,121,121,121,120,121,121,120,121,121,121,121,120,121,122,122,122,121,121,122,121,120,121,121,122,122,122,122,119,120,122,122,121,120,121,121,120
120,121,121,122,121,121,121,120,120,121,121,122,121,121,122,120,120,121,121,122,121,121,121,119,120,121,121,122,121,120,121,120,120,121,120,121,121,121,122,120,120,122,121,122,121,120,121,120,121,122,122,122,121,122,122,121,121,121,120,122,121,121,121,120,120,122,121,122,121,120,121,121,121,122,121,123,121,120,121,120,120,121,121,122,121,120,121,120,121,122,121,122,121,120,121,120,121,122,121,121,121,121,122,121,120,122,121,122,121,120,121,120,120,121,121,122,121,121,122,121,120,122,121,122,122,121,121,120
121,122,121,121,120,121,121,120,120,121,121,122,122,121,121,120,120,121,121,122,122,121,121,120,120,121,121,122,121,120,120,120,121,121,120,121,121,121,121,120,121,121,120,121,121,121,121,120,121,122,121,123,122,121,121,120,121,122,121,122,120,120,121,120,121,122,122,121,120,120,121,120,121,121,121,122,121,121,122,121,120,121,120,121,121,121,121,120,120,121,121,122,121,121,121,119,121,122,122,122,121,121,122,121,121,122,122,121,120,121,121,120,121,122,122,122,120,121,121,120,120,121,121,122,121,121,122,121
121,121,120,121,121,121,121,120,120,121,121,122,121,121,122,121,121,122,121,122,121,120,121,120,121,122,121,121,120,121,122,121,120,121,121,121,121,121,122,120,121,122,121,122,122,122,122,121,120,120,121,122,121,121,122,120,120,120,120,122,121,121,121,121,121,122,120,121,121,121,121,121,120,121,121,122,121,121,121,120,121,121,121,122,122,121,121,120,121,121,121,122,122,121,121,120,120,121,121,122,121,121,122,120,120,121,120,122,122,121,120,119,121,122,122,122,121,120,121,121,121,122,121,121,121,121,121,121
121,122,120,121,121,121,122,121,120,121,121,122,121,121,121,119,121,122,121,122,121,121,122,121,120,121,121,122,122,121,121,120,121,122,121,122,120,121,121,120,121,122,121,121,121,121,121,121,121,121,120,121,121,121,121,120,120,122,121,122,122,122,122,120,121,122,121,121,121,121,121,120,121,122,121,121,121,121,121,120,121,121,120,121,121,121,121,120,120,121,121,122,121,121,121,120,119,120,120,122,122,122,121,119,121,122,121,121,120,120,121,120,121,122,121,122,120,120,121,120,121,122,122,121,120,120,121,120
120,121,121,122,121,121,121,120,120,121,121,121,121,121,120,120,121,122,121,121,121,121,121,121,120,121,121,122,121,121,121,120,121,122,122,123,122,121,122,121,120,121,121,122,121,121,122,121,119,120,120,122,121,122,121,119,121,122,121,122,121,121,120,120,121,121,120,121,121,121,121,120,120,121,121,122,121,121,122,120,120,122,121,122,121,121,121,120,120,121,121,122,122,121,120,119,121,121,120,121,121,121,121,120,121,121,121,122,121,121,122,121,121,122,121,121,120,121,121,120,120,121,121,122,121,120,121,120
120,121,121,122,121,121,122,120,121,121,121,122,122,121,121,120,121,122,121,121,120,121,121,121,120,121,121,122,121,121,120,119,121,122,122,121,120,121,122,121,121,122,121,121,120,121,121,121,121,122,121,122,121,120,121,120,120,122,122,121,120,121,121,120,121,121,120,121,121,121,121,121,120,121,121,122,122,121,121,120,121,122,122,123,121,121,122,120,120,121,120,122,121,121,122,121,120,121,120,122,121,121,121,121,121,121,120,121,121,121,121,121,120,121,121,122,122,121,121,120,121,122,121,121,121,121,122,121
121,121,120,121,121,121,122,120,121,122,122,121,120,120,121,120,121,122,121,121,120,121,121,121,120,122,121,122,121,120,121,120,120,121,121,122,121,121,120,119,121,122,121,121,121,121,121,120,120,122,121,122,121,120,121,120,120,121,121,121,121,120,121,120,120,121,121,122,121,121,122,120,121,121,120,121,121,121,122,121,121,122,121,121,121,121,121,120,120,121,120,122,121,121,122,120,121,122,121,122,122,122,122,120,121,121,121,121,121,121,121,121,121,122,121,121,120,121,121,120,121,122,121,121,121,121,121,121
121,121,120,122,121,121,122,121,121,121,120,122,121,121,122,121,120,121,121,122,121,121,121,120,119,120,121,122,121,121,121,120,119,120,120,121,121,120,120,119,121,122,121,121,121,121,121,120,120,121,121,122,121,121,122,120,121,121,121,122,121,120,121,120,121,122,121,122,121,120,121,120,120,121,121,122,122,121,121,120,121,122,121,122,121,121,120,120,120,121,121,122,121,121,122,121,121,122,121,122,120,120,121,120,121,122,120,121,121,121,121,121,120,121,121,123,121,121,121,120,120,121,120,122,121,122,122,120
120,121,121,122,122,121,120,120,120,122,121,122,121,120,121,121,121,122,121,122,121,120,121,120,121,122,120,121,121,121,122,121,120,122,121,121,120,121,121,120,121,122,121,121,120,121,121,121,121,123,121,122,121,121,122,121,120,120,120,121,121,122,121,120,121,122,120,121,121,121,121,120,121,122,121,122,121,120,121,120,120,120,121,121,121,121,122,120,121,122,122,122,122,121,122,121,120,121,121,122,120,120,121,120,120,121,121,122,121,121,121,120,120,121,121,122,121,122,121,120,120,121,121,122,120,120,121,120
120,121,121,122,121,121,122,120,120,120,120,122,121,121,122,120,120,121,121,122,121,120,121,120,120,122,121,122,121,120,121,121,120,121,121,122,121,120,121,120,121,122,121,121,121,121,121,120,121,122,121,121,121,121,121,121,120,121,121,122,121,121,121,120,121,122,122,122,121,121,121,121,121,122,121,122,120,121,121,120,119,121,121,122,121,121,121,120,121,122,121,122,121,120,121,121,121,122,121,121,121,121,121,121,121,122,121,122,121,120,121,120,121,121,120,121,121,121,121,121,120,121,121,121,121,121,121,120
121,122,121,122,121,120,121,120,121,121,121,122,121,122,122,121,120,121,121,122,121,121,121,120,120,121,121,122,121,121,121,120,120,122,122,122,121,120,121,120,121,121,120,121,121,121,122,120,121,122,121,121,121,121,121,120,120,121,121,122,121,121,121,119,119,121,121,122,121,121,122,120,120,121,121,122,122,121,121,120,120,121,121,122,121,122,121,120,121,121,121,122,121,121,122,121,120,121,120,121,121,121,121,121,120,121,120,122,121,121,122,120,121,122,121,122,121,121,122,121,121,121,120,121,121,121,121,121
121,122,121,122,121,120,121,120,120,121,121,122,121,122,121,120,121,122,121,122,121,120,121,120,120,121,121,122,122,122,121,121,121,122,120,121,121,121,121,120,120,121,121,122,121,121,122,120,121,122,122,122,121,121,122,120,121,122,120,121,121,120,121,121,121,121,121,121,121,121,121,121,121,121,120,121,121,121,121,120,121,121,120,121,121,121,121,121,121,122,121,121,120,121,121,120,121,122,122,122,121,121,121,121,120,121,121,121,120,120,121,120,120,122,122,122,120,121,121,120,121,122,121,121,121,121,121,121
121,122,121,122,121,120,121,120,120,121,121,122,121,120,121,120,121,121,121,122,120,120,121,120,121,122,121,121,120,121,121,120,120,121,121,122,121,121,121,120,121,122,121,121,121,121,121,120,120,121,121,122,122,121,121,120,120,121,121,122,121,121,121,120,121,121,120,121,121,121,121,121,121,122,121,122,121,122,122,121,121,121,120,121,121,121,121,121,120,121,121,122,121,121,120,119,120,121,121,122,121,121,121,120,121,122,120,121,120,121,121,120,120,121,121,122,121,121,121,120,120,121,120,122,121,121,121,120
120,121,121,122,122,121,121,120,120,121,122,122,121,120,121,120,121,122,121,122,121,121,122,121,121,121,121,122,121,121,122,121,121,121,120,122,121,121,121,121,120,121,121,122,121,121,121,120,120,121,121,122,121,121,121,120,121,122,121,122,120,120,121,120,121,122,121,122,120,120,121,120,121,121,120,121,121,121,121,121,121,121,120,121,121,121,121,120,120,122,121,122,121,120,121,120,120,122,121,122,120,120,121,120,121,121,121,121,121,121,121,120,121,121,120,121,121,121,122,121,121,121,120,121,121,121,121,121
120,121,120,121,121,121,122,121,121,122,121,121,120,121,121,121,120,122,121,121,121,121,121,120,121,122,120,121,120,121,121,120,122,122,121,121,120,121,122,121,121,122,122,122,120,120,121,120,121,122,121,122,121,120,121,120,119,121,120,122,121,121,121,120,120,122,121,122,121,120,121,120,121,122,121,121,121,121,121,120,121,121,120,121,121,121,121,120,121,122,121,122,121,121,120,119,121,122,121,121,120,121,121,121,120,122,121,122,121,120,121,120,120,122,121,121,121,121,121,120,120,121,121,122,121,122,121,120
120,121,121,122,121,121,120,119,121,122,121,122,121,121,121,120,120,121,121,122,122,121,121,120,121,121,120,121,121,121,121,121,121,122,122,122,120,120,121,120,121,122,122,122,121,121,122,121,120,121,121,122,122,121,120,119,121,122,122,122,121,120,121,120,121,122,121,122,120,120,121,120,121,122,122,122,121,120,121,120,120,121,121,122,121,120,121,120,120,121,121,122,121,120,121,120,121,122,122,122,121,120,121,120,121,121,120,121,121,121,122,121,121,122,122,122,121,121,121,120,121,121,120,122,121,121,121,121
120,121,121,122,121,121,121,120,120,121,121,122,121,121,122,120,120,121,121,122,122,121,120,120,120,122,121,122,121,121,121,120,120,121,121,122,121,120,121,120,120,121,121,122,121,121,122,120,120,121,121,122,122,121,121,120,121,122,121,122,121,122,122,121,121,122,121,122,120,120,121,120,120,121,121,121,122,121,121,120,120,121,121,122,122,121,121,120,120,121,121,122,121,122,121,120,120,122,121,122,122,120,120,120,120,121,121,122,122,121,121,119,121,121,120,121,121,121,121,121,121,121,121,121,121,121,121,120
121,121,121,122,121,121,122,121,121,122,122,122,120,121,121,121,120,121,120,122,121,121,122,121,120,120,120,122,121,121,121,120,121,122,120,121,121,121,121,121,121,122,121,121,121,121,122,121,120,122,122,122,121,120,121,120,121,122,121,122,121,120,121,120,120,121,121,122,121,120,121,120,121,122,121,121,120,121,121,120,120,122,121,122,121,121,120,120,121,122,120,121,121,122,121,121,121,121,120,121,121,121,121,121,120,122,122,122,122,122,121,120,120,122,121,122,122,121,121,120,120,120,120,122,121,121,121,120
121,121,120,121,121,121,121,120,121,122,122,122,120,120,121,120,120,121,121,122,121,122,122,120,120,121,121,122,121,121,121,120,121,122,121,122,121,120,121,120,121,122,121,121,120,121,121,120,121,122,121,121,121,121,121,120,121,121,120,121,121,121,121,121,120,121,121,122,121,121,121,120,121,121,120,121,121,121,121,121,121,122,122,122,121,121,122,121,121,122,120,122,121,121,121,120,120,121,120,121,121,121,121,120,121,121,120,121,121,121,121,121,120,121,121,122,121,121,121,119,120,122,121,122,122,121,121,120
119,121,121,121,121,121,122,120,120,122,121,122,122,121,120,120,121,121,120,121,121,121,121,120,121,122,121,121,120,121,121,121,120,121,120,121,121,121,121,121,120,121,121,122,120,121,121,121,121,122,121,121,121,121,121,120,120,122,122,122,120,120,121,120,120,121,121,122,121,120,121,120,121,122,121,121,120,120,121,121,120,122,121,122,122,121,121,120,120,121,121,122,121,121,121,119,121,122,122,122,121,121,122,120,121,121,120,122,121,121,122,121,121,122,121,122,121,120,121,120,121,121,121,122,121,121,121,120
121,122,122,122,120,120,121,120,121,122,121,122,122,122,121,120,120,120,120,122,121,121,122,120,121,122,121,121,120,121,121,121,120,121,121,122,122,121,121,119,121,121,120,121,121,121,122,121,120,121,121,122,121,120,120,120,120,122,121,122,121,120,121,120,121,121,120,121,121,121,121,121,121,122,121,121,121,121,121,120,121,121,120,121,121,121,121,120,120,121,120,122,122,122,121,119,121,123,121,122,121,121,121,121,121,122,121,122,121,122,122,120,121,122,121,122,120,121,121,120,120,122,121,122,121,121,120,119
119,121,121,122,121,121,121,120,121,122,121,122,121,120,121,120,120,121,120,122,122,121,120,120,121,122,121,121,121,121,121,120,120,121,121,122,121,121,122,120,121,122,122,122,120,121,121,121,121,122,121,122,121,121,122,121,121,122,121,121,120,120,121,120,120,121,121,122,121,121,121,120,121,122,122,121,120,120,121,120,120,121,121,122,121,120,121,120,119,121,121,122,121,121,121,120,121,122,122,122,120,120,121,120,120,122,121,122,121,120,121,120,120,122,121,121,120,121,121,120,121,122,122,121,121,121,121,121
121,122,121,122,121,121,121,120,120,121,121,122,121,121,122,120,120,121,121,122,122,121,120,120,120,122,121,122,121,120,121,120,120,121,121,122,121,121,120,120,120,122,121,122,121,120,121,120,120,121,120,122,121,121,121,120,121,122,121,121,120,121,121,120,121,121,120,121,121,121,121,121,121,122,121,122,120,120,121,120,121,121,121,122,121,120,120,120,121,121,120,121,121,121,121,121,121,122,121,122,121,121,122,121,121,122,121,121,121,121,122,120,120,121,121,122,121,122,121,120,120,121,121,122,121,120,121,120
120,121,121,122,122,121,120,119,120,122,121,122,121,120,121,120,121,122,121,121,120,121,121,121,120,121,121,122,122,121,121,120,121,122,121,122,121,121,121,121,121,122,121,121,121,121,121,121,121,122,121,121,120,121,121,120,120,121,121,121,121,121,121,121,120,122,121,122,121,120,121,120,120,121,121,122,121,121,122,120,120,121,120,121,121,121,121,121,121,122,121,122,121,121,121,120,121,122,121,122,121,120,121,120,121,122,121,122,121,122,122,120,121,122,122,122,120,120,121,120,120,122,121,122,121,120,121,120
121,121,120,121,121,121,121,120,121,121,120,121,121,121,121,121,121,121,120,121,121,121,122,120,120,122,121,121,121,121,121,121,121,121,120,121,121,121,121,121,120,121,121,122,121,121,121,120,121,122,121,122,122,121,122,120,121,121,121,121,121,121,121,120,120,121,121,122,121,121,121,120,120,121,121,122,121,121,121,119,120,120,120,122,121,121,122,121,120,121,121,122,122,121,120,120,121,122,120,121,121,121,121,120,121,121,120,121,121,121,121,121,121,122,121,121,120,121,121,120,121,122,122,122,121,121,122,121
121,122,121,121,120,121,121,120,121,122,121,121,120,121,121,120,121,122,120,121,121,121,121,121,121,121,120,121,121,121,121,121,121,121,120,122,121,121,122,120,121,122,122,122,120,120,121,120,120,121,120,121,121,121,121,121,119,120,121,122,121,121,120,120,121,122,121,122,121,122,122,121,121,122,121,121,121,121,121,121,121,122,121,121,120,121,121,121,120,121,120,122,121,121,122,120,121,122,121,121,121,121,121,120,121,122,121,122,120,120,121,120,120,121,120,121,121,121,122,121,121,121,121,122,122,122,121,120
120,121,121,122,121,121,121,119,120,122,121,122,122,121,121,120,120,121,120,121,121,121,121,121,121,122,122,122,121,120,121,120,120,122,121,122,120,121,121,120,121,122,122,122,122,121,121,121,120,121,120,121,119,119,120,120,121,122,120,121,121,121,121,121,120,122,121,122,122,122,121,119,120,122,122,122,121,121,121,120,121,122,120,120,120,121,121,121,120,121,121,121,120,119,120,120,121,122,122,122,121,121,121,121,121,121,121,122,121,121,122,120,121,122,120,122,121,122,121,121,120,121,121,122,121,120,121,119
120,121,121,122,121,121,121,120,121,122,121,121,120,121,121,121,120,121,121,122,121,121,121,120,121,121,120,121,121,122,122,120,120,121,121,122,121,120,121,120,120,122,121,122,123,124,121,120,120,121,120,122,121,121,122,120,121,122,122,122,121,121,122,121,120,121,120,121,121,121,122,121,120,121,121,122,121,121,122,120,121,122,121,122,121,120,121,120,121,122,121,122,121,120,120,120,120,121,120,121,120,121,121,121,120,121,121,122,121,121,120,120,120,121,121,122,121,121,122,120,120,122,121,121,121,121,121,120
121,122,121,122,121,121,121,121,120,121,121,122,121,121,121,119,120,121,121,122,122,121,121,120,120,122,121,122,122,121,120,120,120,120,120,122,121,121,122,120,120,121,120,121,121,122,121,119,120,121,121,122,121,121,121,120,120,121,121,122,122,121,121,120,120,122,121,122,121,120,121,120,120,121,121,122,122,121,120,119,120,121,121,122,121,121,121,119,121,122,122,122,120,121,121,120,120,122,121,122,121,121,121,119,120,121,121,122,122,122,121,120,120,121,121,122,121,121,122,120,121,122,121,121,121,121,121,120
121,122,121,122,120,120,121,120,121,121,120,121,121,121,121,120,120,121,120,122,121,121,122,120,121,122,121,122,121,121,122,121,120,121,121,122,121,121,122,120,121,122,121,122,121,120,121,120,121,122,121,122,121,122,122,121,121,122,121,122,122,121,121,119,120,121,120,121,121,121,122,121,120,121,121,122,121,120,121,120,120,121,121,122,121,121,122,120,121,122,122,121,121,121,122,121,120,121,120,121,121,121,122,120,121,122,121,121,120,120,121,120,121,122,121,121,120,121,121,121,121,122,121,122,121,121,122,121
120,121,121,122,121,122,121,120,120,121,121,122,121,121,122,120,120,121,120,121,121,121,121,121,121,122,121,122,120,121,121,120,121,121,121,122,122,121,121,120,120,121,121,122,122,121,120,119,121,122,121,122,120,120,121,120,121,121,120,122,121,121,122,120,121,122,121,121,121,121,122,120,120,121,121,122,122,122,121,120,120,121,121,122,121,120,121,120,120,121,120,122,121,121,121,120,122,122,121,122,121,122,122,121,120,121,121,122,121,121,122,120,120,120,120,121,121,121,121,121,120,121,121,122,121,121,121,119
120,121,120,121,121,121,121,121,120,122,121,122,121,121,121,119,120,121,121,122,121,121,121,121,121,122,120,122,121,121,122,121,120,121,120,121,121,121,122,121,121,122,121,122,122,122,121,121,121,122,121,121,121,121,121,121,121,122,121,121,120,120,121,120,120,121,121,122,121,120,120,120,120,122,121,121,121,121,122,120,120,121,121,122,121,121,122,120,121,122,122,122,120,121,121,121,120,121,121,122,122,121,120,119,121,122,121,122,120,120,121,120,121,122,121,122,121,121,121,120,120,121,121,122,122,121,120,120
120,121,121,122,121,122,122,120,121,122,121,121,121,121,121,121,120,122,121,123,121,121,122,121,120,121,121,122,121,121,121,120,120,121,120,122,122,121,121,119,121,121,120,122,121,121,121,121,121,121,120,121,121,121,122,121,121,121,121,122,121,122,121,120,120,121,121,122,121,120,121,119,120,121,121,122,121,121,121,119,121,122,120,121,120,121,122,121,120,121,121,122,122,122,121,120,120,121,120,121,121,121,121,120,120,122,121,122,121,120,120,120,121,122,120,121,120,121,121,120,120,121,121,122,122,121,121,120
120,121,120,121,121,121,121,121,120,121,120,122,121,121,122,120,121,122,121,122,120,120,121,121,120,121,121,122,122,121,120,120,121,121,120,121,121,121,121,121,121,122,121,122,121,121,120,120,121,121,121,122,122,122,121,120,121,122,121,121,120,121,121,120,120,122,121,122,122,121,121,120,121,121,120,121,121,121,121,121,120,121,121,123,122,122,121,120,120,121,121,122,121,121,121,120,120,121,121,122,122,121,121,120,120,121,120,122,121,121,122,120,121,122,120,121,120,120,121,121,119,121,121,122,121,122,121,120
121,122,121,122,121,120,120,120,121,122,122,122,120,121,121,121,120,122,121,121,120,121,121,120,120,121,121,121,120,121,121,120,121,121,120,121,121,121,122,120,121,122,121,122,122,122,122,120,121,122,121,122,121,120,121,120,120,121,121,122,121,121,121,120,121,121,120,121,121,121,121,120,120,121,121,122,121,121,122,120,121,122,121,122,120,120,121,120,120,121,121,122,121,121,121,120,120,122,121,122,121,120,121,120,121,122,121,121,121,120,121,120,121,122,121,121,120,121,121,121,120,121,121,122,121,121,122,120
120,120,120,122,121,122,121,120,121,122,120,121,121,121,121,120,121,122,122,123,122,121,122,121,120,121,121,121,121,121,122,120,120,121,120,121,121,121,121,121,121,122,120,121,121,121,122,120,120,121,121,122,121,122,121,119,120,121,121,122,122,121,120,120,120,121,121,122,121,121,122,120,121,121,121,121,121,121,121,121,121,122,122,121,120,121,121,120,121,122,120,122,121,121,122,120,121,122,120,122,121,122,122,120,121,122,121,121,120,121,121,120,120,121,121,122,121,120,120,120,121,121,120,121,121,121,122,121
121,122,121,121,120,121,121,120,121,122,121,121,120,121,121,120,120,122,121,122,121,121,121,120,121,121,120,121,121,122,122,120,120,122,121,123,121,121,122,120,120,121,121,122,121,121,122,120,121,122,121,121,121,121,121,121,120,121,121,122,121,121,121,120,120,121,121,121,121,121,121,120,121,122,121,121,120,121,121,121,121,122,121,121,120,121,122,121,121,121,121,122,121,120,121,120,121,122,121,121,121,121,121,121,121,122,121,122,121,120,121,120,121,122,121,121,120,121,121,120,121,122,120,121,121,121,121,120
121,122,120,121,121,121,121,120,121,121,120,121,121,121,121,121,121,122,120,121,121,121,121,121,121,122,121,122,121,121,121,121,120,121,120,121,121,121,122,121,121,122,120,122,121,122,122,120,119,121,121,122,121,122,121,120,121,122,121,121,121,121,121,120,120,121,121,122,121,121,121,120,120,121,121,122,122,121,120,120,121,121,120,121,120,121,121,120,121,122,121,122,121,120,121,120,120,120,119,121,121,121,121,120,120,121,120,121,121,121,122,120,121,121,121,122,121,121,122,120,121,122,121,122,121,121,122,121
120,121,121,122,121,121,122,120,120,121,120,122,121,121,122,121,120,121,121,122,121,121,122,120,120,121,121,121,120,121,121,120,121,122,120,121,120,121,122,121,120,121,121,122,122,121,121,119,121,122,121,122,121,121,121,120,121,122,122,122,122,121,122,121,120,121,121,122,121,121,122,120,120,121,120,122,121,121,121,120,121,121,121,121,120,121,121,120,121,122,121,122,121,120,121,120,121,121,121,121,120,121,121,121,120,121,121,122,121,121,122,120,121,122,121,122,120,121,121,120,121,122,120,121,121,121,121,121
120,121,121,122,121,121,121,120,121,122,121,122,121,120,121,120,121,122,121,121,121,121,121,120,120,121,121,122,122,121,121,119,121,121,121,122,121,122,122,120,120,121,121,122,122,121,121,120,120,121,121,122,121,121,121,120,121,122,122,121,121,121,121,121,120,120,120,122,121,121,121,120,121,122,122,122,121,120,120,120,121,122,122,122,121,120,121,120,120,122,122,122,120,120,121,120,120,121,121,122,121,122,122,120,121,122,121,121,120,121,121,120,120,121,121,122,121,120,121,120,121,122,121,122,120,120,121,120
120,121,121,122,121,121,121,120,120,121,121,122,122,122,121,120,121,122,121,121,120,121,122,121,121,122,121,122,120,121,121,120,120,121,121,123,121,120,121,120,120,121,120,121,121,121,122,120,120,121,121,122,121,120,121,120,120,121,121,122,121,121,121,120,120,121,121,122,121,122,121,120,119,120,121,122,121,120,121,119,121,122,122,122,121,121,122,121,121,122,121,122,120,120,121,120,120,121,121,122,121,120,121,120,120,121,120,121,121,121,121,121,120,122,121,122,120,120,121,120,120,121,121,122,121,121,120,120
121,121,121,122,121,121,121,120,121,122,121,122,121,120,121,120,121,122,122,122,121,121,121,120,120,121,121,122,121,122,121,120,120,122,121,122,122,121,120,120,121,122,121,121,121,120,121,120,121,122,122,122,122,121,121,120,120,121,121,122,121,121,122,120,120,120,120,122,121,121,121,121,121,122,120,121,120,121,121,120,120,121,121,121,121,121,122,120,120,121,121,122,122,120,121,120,120,121,121,122,121,121,121,121,121,122,121,122,121,121,121,121,119,120,120,121,121,121,121,120,120,121,121,121,121,121,122,120
121,122,121,123,121,121,121,120,120,121,120,121,121,122,122,120,121,122,122,122,120,121,121,121,120,121,121,122,121,120,121,120,119,120,120,122,122,121,121,119,120,121,121,121,121,121,121,119,121,121,120,121,121,121,122,121,121,121,121,122,121,122,121,120,121,122,120,121,121,121,121,120,121,122,120,121,121,121,122,120,120,120,121,122,121,121,122,120,120,121,120,121,121,121,122,120,121,122,120,121,121,121,121,120,120,121,121,122,122,121,122,121,120,121,121,122,122,121,121,120,120,122,121,121,120,121,121,121
120,121,121,122,122,121,121,120,121,121,120,121,121,121,121,120,121,121,120,121,121,121,121,121,119,120,120,121,121,121,122,120,121,121,120,122,122,122,121,120,121,122,121,122,121,121,121,120,121,122,122,123,121,121,121,121,120,121,121,122,121,120,121,120,121,122,121,121,121,121,122,121,120,121,121,122,121,121,120,120,121,122,121,122,121,120,121,120,121,121,120,122,121,121,122,120,120,122,121,121,120,121,121,121,120,121,121,122,121,121,122,120,120,122,121,122,121,120,121,120,120,122,121,122,122,122,121,121
121,122,121,121,120,121,121,121,121,121,120,122,121,121,122,120,120,122,121,121,121,121,121,121,120,122,121,122,122,121,121,120,120,120,120,121,121,121,121,121,121,122,121,121,120,121,121,120,121,122,122,121,120,121,121,120,120,122,121,122,121,120,121,120,120,121,121,122,121,120,121,120,120,121,121,122,121,121,121,120,120,122,122,122,121,120,121,120,121,122,121,121,121,121,121,121,121,122,122,122,121,121,122,121,121,122,121,121,121,121,121,120,121,122,121,122,121,120,121,120,121,121,121,122,122,121,120,119
120,122,121,121,120,121,121,120,120,121,121,122,121,121,121,120,120,121,120,122,121,121,121,120,121,121,120,122,121,122,121,120,121,121,121,122,122,121,120,120,120,121,121,122,120,120,121,120,121,122,121,122,121,120,121,120,120,121,120,122,121,121,122,120,121,122,120,121,121,121,121,120,121,123,121,122,121,121,122,121,120,121,121,121,120,120,121,120,120,121,121,122,121,121,121,120,120,122,122,122,122,121,120,120,120,121,121,121,121,121,121,121,121,121,120,121,121,121,121,120,120,121,121,122,121,121,121,120
120,121,120,121,121,121,122,120,119,121,121,122,121,121,122,120,121,122,121,122,122,122,121,120,120,121,121,122,122,121,121,120,121,122,121,122,121,121,121,121,120,121,121,122,121,120,121,120,121,122,121,121,121,120,121,120,121,122,121,122,121,121,121,121,120,121,121,122,121,121,121,119,121,121,120,121,121,121,121,121,120,121,121,122,121,121,120,120,121,122,122,122,121,122,122,121,121,121,120,122,121,121,121,121,120,121,121,122,121,121,121,120,121,122,121,121,121,121,121,121,120,120,121,121,121,121,122,121
121,121,120,121,120,121,122,121,120,121,120,121,121,121,121,120,120,122,121,122,122,121,120,119,121,122,121,121,121,121,121,120,121,122,122,121,120,120,121,120,121,121,121,121,120,120,121,120,121,122,120,121,120,121,121,121,120,122,121,122,122,121,120,120,121,122,122,122,121,121,122,121,120,121,120,122,121,121,121,121,120,121,121,122,122,120,120,119,120,121,121,122,121,121,122,120,120,121,121,122,121,121,121,119,120,122,122,122,121,120,121,120,120,122,121,121,120,121,121,120,120,121,121,122,122,121,121,119
119,121,121,122,121,121,122,120,120,121,121,122,121,122,121,120,120,122,121,121,121,121,121,120,120,121,120,121,121,121,122,121,120,121,121,122,121,121,120,119,121,121,121,121,121,121,122,120,120,122,121,121,120,121,121,120,121,122,121,122,121,121,121,120,120,121,120,122,121,121,122,120,121,122,122,123,121,121,122,121,120,121,120,122,122,121,121,120,120,121,121,122,121,121,120,120,120,122,121,122,121,120,121,120,120,121,121,122,121,121,121,120,121,121,121,121,120,121,121,120,121,121,120,121,121,121,121,121
121,122,121,121,121,121,121,121,121,122,121,123,121,120,121,120,121,122,121,121,120,121,122,121,121,122,120,121,120,121,121,121,120,122,121,122,121,120,121,120,120,121,120,122,121,121,122,120,121,122,122,122,121,121,122,121,121,121,120,121,121,121,121,121,121,122,121,122,121,120,120,120,121,122,122,122,120,121,121,120,120,121,121,122,121,121,122,120,121,122,121,121,121,121,121,120,119,121,121,122,121,121,121,120,120,121,121,122,121,120,121,120,120,121,120,121,121,121,122,120,121,122,121,122,121,121,122,121
120,121,121,122,121,121,122,121,120,121,121,122,121,121,121,119,121,121,120,122,121,121,121,121,120,121,121,122,121,121,121,120,121,121,120,122,122,122,121,120,120,121,121,122,122,121,121,120,120,121,121,122,121,121,121,120,122,122,121,121,121,121,126,124,121,124,121,122,121,120,113,117,130,119,121,123,123,127,137,123,121,117,120,121,121,122,120,123,119,122,121,122,121,121,123,123,119,121,121,122,122,123,128,120,120,121,121,122,122,121,122,120,121,121,120,120,120,120,121,121,121,121,120,121,121,121,121,121
121,122,121,122,121,120,121,120,120,121,121,122,122,121,121,119,121,122,121,121,120,121,121,121,121,122,121,121,121,121,122,121,120,121,121,122,121,121,122,120,120,121,121,122,121,121,119,119,121,121,121,122,120,120,125,124,123,122,121,122,122,122,128,127,117,121,120,122,121,119,113,110,115,120,120,121,121,119,115,113,126,121,120,121,121,121,124,131,117,121,121,122,121,119,113,110,120,119,120,120,120,119,119,120,117,122,120,121,120,121,119,116,117,124,124,124,124,126,129,127,123,121,119,119,116,119,120,127
119,120,121,121,118,118,117,114,123,122,122,122,121,121,129,126,123,118,120,120,120,120,116,129,133,121,122,124,124,128,143,152,114,123,122,125,130,124,114,92,118,120,119,119,120,118,121,123,118,119,120,122,118,119,111,112,135,122,120,117,102,120,136,184,129,124,122,122,125,121,114,103,112,121,121,122,122,124,120,105,134,121,121,120,116,124,132,185,119,121,121,121,114,117,116,118,119,121,122,131,153,122,119,85,117,122,121,119,109,126,131,163,122,128,125,126,128,126,119,129,129,120,119,119,118,117,111,101
117,118,119,120,121,123,109,125,116,120,120,122,120,116,127,123,107,120,120,121,121,121,112,105,138,124,123,125,138,122,114,135,122,121,120,120,114,117,124,111,116,120,121,122,122,122,119,117,115,119,119,120,119,118,121,129,138,124,122,122,122,123,128,118,110,116,119,120,119,118,117,113,133,123,122,123,122,124,127,141,114,122,121,122,122,122,124,106,122,120,120,121,120,120,116,117,109,122,122,123,122,122,121,103,124,121,121,121,118,122,124,121,105,121,121,119,116,113,107,103,120,120,119,120,117,119,116,129
132,120,121,121,119,119,129,125,101,118,118,111,93,121,129,105,134,125,121,125,133,121,137,131,121,120,120,122,120,121,122,95,137,124,122,114,87,122,144,209,111,123,122,122,119,120,114,108,131,119,118,121,128,116,111,97,108,120,122,123,121,122,107,137,121,120,120,119,110,111,85,63,119,123,123,122,117,129,144,158,119,126,121,115,91,116,119,115,113,116,119,122,118,115,116,99,109,122,121,120,113,120,137,122,162,124,119,117,110,112,111,148,97,137,123,121,117,124,125,70,142,109,119,125,133,118,118,114
114,128,121,119,110,120,128,126,102,117,121,130,136,118,113,89,138,131,126,124,127,130,148,209,94,117,117,110,93,111,93,57,135,124,122,126,140,128,128,140,120,120,120,123,116,117,126,126,109,120,121,116,96,122,125,82,131,125,122,121,126,118,113,131,129,121,122,122,115,122,133,128,119,119,119,118,118,124,140,179,124,123,122,124,117,121,137,95,114,121,121,121,117,124,137,133,144,124,122,121,119,116,122,129,133,119,120,122,121,122,129,132,118,116,116,116,115,122,108,84,116,119,118,117,118,113,107,103
106,124,121,118,110,118,116,106,121,118,118,123,125,112,107,95,109,122,123,125,125,128,128,125,135,129,121,122,119,119,115,105,111,113,118,119,116,125,130,90,114,122,120,119,116,117,113,134,122,122,121,121,108,116,117,99,111,116,116,108,88,117,115,110,107,119,119,119,125,112,106,91,117,123,121,120,109,113,113,145,148,127,126,132,150,126,118,151,113,121,121,123,120,120,123,129,126,122,121,121,118,124,116,114,100,120,123,125,136,129,110,110,142,123,123,122,122,122,113,122,115,123,122,119,118,128,133,116
111,117,118,121,110,112,94,98,128,126,122,121,105,117,122,148,116,130,124,124,124,132,111,127,142,111,117,118,117,115,110,87,107,124,120,121,118,115,96,123,115,125,122,121,112,119,112,127,119,119,117,117,111,113,111,109,119,120,120,118,112,122,102,107,123,121,120,123,128,127,136,120,126,125,125,137,170,130,152,123,111,118,120,123,131,121,114,94,118,123,121,119,114,122,111,132,126,121,120,121,119,119,122,125,121,117,119,118,114,116,103,81,116,122,118,117,114,119,118,112,107,124,121,121,120,118,106,77
139,122,122,122,120,123,121,148,122,119,119,120,121,119,114,114,135,117,120,122,123,130,134,150,109,121,120,120,118,120,108,97,119,121,121,122,122,118,126,110,121,120,121,120,116,115,104,91,112,117,121,125,122,121,138,133,118,121,117,112,96,108,114,113,136,122,121,122,121,118,113,126,105,120,121,121,117,117,110,88,118,117,119,119,115,119,117,123,121,123,122,121,115,119,113,107,120,120,119,120,117,115,123,132,127,122,121,121,119,123,139,150,116,124,122,122,121,123,113,126,132,121,120,121,122,123,109,110
112,118,121,124,137,117,113,121,117,121,118,114,94,112,120,81,118,122,120,121,124,124,115,144,112,126,123,124,123,124,141,115,135,118,120,120,117,124,138,123,102,126,123,127,136,124,117,90,132,124,123,121,118,126,149,197,121,122,119,120,119,114,117,105,121,118,119,120,113,117,114,99,123,120,120,116,113,120,119,102,122,122,123,126,115,124,147,136,112,113,120,121,126,122,112,90,123,124,120,119,117,124,133,138,109,119,121,125,128,118,114,106,130,124,122,121,122,119,125,123,125,123,121,122,121,118,129,115
114,121,120,122,122,122,127,95,120,121,123,125,124,121,129,119,122,122,120,118,116,120,125,121,131,123,121,122,119,123,124,143,110,122,126,132,140,134,143,108,112,122,121,123,117,112,111,99,116,122,121,119,114,120,123,104,129,122,123,129,143,127,116,158,124,124,121,123,119,125,131,135,117,114,120,120,119,120,125,117,124,122,119,112,119,122,109,136,117,129,123,122,120,123,127,126,113,119,121,127,135,121,116,114,142,124,121,119,106,125,125,202,118,119,119,117,105,116,114,109,113,119,120,121,121,119,126,89
118,119,120,121,122,119,125,126,125,122,121,121,121,122,126,149,119,123,123,124,123,119,125,106,127,119,118,119,121,121,118,127,107,118,119,120,121,120,111,120,138,124,123,122,123,123,124,146,122,124,129,135,134,130,129,98,117,128,121,125,134,118,114,159,128,118,121,127,136,124,129,121,113,119,120,121,112,115,108,93,129,126,124,129,129,125,135,163,122,124,124,129,144,126,121,116,128,121,120,121,121,124,122,115,125,118,119,120,117,125,123,158,120,124,121,126,128,117,121,105,116,124,122,122,119,119,93,99
142,106,115,116,109,118,98,101,114,124,119,116,103,116,137,126,114,120,119,113,104,117,108,75,97,126,120,121,116,115,117,102,130,115,121,121,116,121,114,94,121,128,124,121,131,129,133,136,121,125,125,144,189,127,147,150,119,124,119,120,122,133,113,104,132,121,122,119,110,120,129,149,117,121,120,120,107,112,108,122,121,121,122,124,117,124,134,130,118,120,120,119,109,113,105,107,121,123,124,124,123,126,125,131,122,112,118,120,120,119,124,106,125,123,122,124,127,125,131,168,105,122,121,121,116,117,122,99
133,118,120,123,121,126,137,124,110,118,119,120,119,120,105,133,137,132,127,137,165,138,167,154,117,121,122,121,117,120,105,112,118,117,119,119,114,116,104,115,122,125,121,121,123,119,118,119,119,120,121,124,130,117,93,110,123,123,119,125,150,133,128,110,109,121,121,122,121,128,133,112,132,119,121,122,123,123,112,129,117,122,118,113,110,120,116,80,128,125,123,130,141,127,135,145,105,123,120,120,117,116,91,76,151,118,121,121,122,130,141,188,118,122,121,121,116,116,122,112,119,122,122,122,126,120,122,113
123,124,121,122,119,124,146,122,116,122,121,121,123,125,103,105,112,118,120,120,117,117,97,119,125,122,119,121,112,114,119,133,123,122,120,119,111,120,121,125,101,117,119,119,116,117,109,97,136,122,121,120,110,117,124,128,112,118,119,118,124,114,94,110,132,124,123,122,116,120,110,130,114,121,119,124,131,128,106,95,111,119,119,119,110,114,106,99,141,126,124,121,122,132,146,166,100,120,120,121,115,114,108,96,125,121,119,120,123,124,131,132,120,126,121,122,125,121,109,119,119,117,122,125,115,123,133,125
117,121,119,125,139,120,119,119,123,123,120,117,108,114,106,116,126,120,121,123,124,129,116,121,123,123,121,121,121,125,132,153,120,124,125,136,162,127,126,122,125,122,121,122,118,115,97,112,99,122,120,121,124,120,114,96,158,120,121,122,123,126,153,179,104,120,119,114,98,120,113,95,117,124,121,122,123,117,108,116,110,122,120,120,117,119,99,82,146,124,124,124,124,130,152,194,121,124,121,124,127,114,119,114,115,119,121,121,124,115,109,96,132,127,123,124,125,124,149,181,124,120,121,121,115,115,101,101
126,118,118,121,118,117,117,113,119,120,121,125,138,123,121,111,119,123,120,119,115,114,106,136,125,123,121,121,117,126,119,134,115,120,121,122,117,119,120,99,120,124,122,124,134,125,121,103,117,120,121,121,119,125,138,123,126,123,122,122,121,123,122,128,125,123,121,121,121,123,98,118,135,124,122,120,121,120,96,113,107,125,124,126,122,123,141,112,117,122,121,124,123,125,145,104,123,124,122,122,122,124,138,137,141,124,123,123,123,127,123,138,113,120,120,118,114,123,121,110,122,123,122,123,126,129,132,130
120,123,122,128,142,124,131,123,122,120,121,121,115,122,140,122,123,123,121,121,113,119,123,122,118,118,119,121,125,116,114,124,116,119,119,123,123,117,112,98,120,122,123,129,151,124,124,134,116,123,121,121,120,120,118,107,135,116,120,120,118,119,123,126,117,123,121,122,121,129,124,130,124,121,119,119,114,119,119,119,109,122,122,124,120,117,119,114,130,120,123,127,131,132,132,116,118,120,120,122,126,117,97,104,118,121,121,122,121,119,124,128,113,123,120,121,114,119,121,111,118,118,121,123,118,119,118,106
127,121,119,116,109,116,137,140,117,123,120,121,123,131,105,130,120,119,119,119,121,116,128,129,107,116,120,120,116,119,115,104,134,122,121,121,120,114,124,123,122,126,121,121,127,120,111,114,111,119,122,124,127,123,133,134,115,124,122,122,123,120,115,105,144,122,122,123,122,123,138,151,114,123,120,120,120,120,113,114,112,119,121,127,141,118,115,113,118,124,123,127,128,122,109,112,120,124,121,121,121,120,131,125,131,118,119,120,118,124,137,117,119,122,121,118,114,110,101,113,118,126,120,121,118,118,121,112
110,119,120,121,120,119,135,102,133,124,125,129,135,128,116,139,118,126,121,119,108,113,115,129,124,122,122,122,121,120,127,125,124,117,118,119,116,121,140,115,117,122,122,123,120,119,118,110,116,120,121,123,126,121,116,128,135,121,120,116,116,117,102,118,110,123,123,123,126,134,134,110,116,124,121,121,116,122,140,131,124,120,121,119,115,124,135,124,119,122,124,137,166,127,122,115,125,123,122,122,121,113,121,122,107,122,119,121,120,124,114,115,125,122,122,123,122,116,116,107,117,120,120,121,121,121,124,111
121,122,121,121,124,120,119,118,121,123,122,121,115,120,133,135,113,114,121,123,122,124,110,93,132,123,119,117,110,125,134,133,121,124,124,132,150,125,100,101,114,122,121,123,122,121,107,106,118,118,120,120,117,114,100,119,130,119,119,119,117,116,99,114,103,123,123,125,113,114,115,96,118,121,119,117,117,121,125,135,126,125,122,123,122,119,132,125,122,121,121,122,121,119,96,119,120,122,122,121,116,118,120,107,118,122,122,122,125,118,112,115,126,124,122,121,116,126,147,144,117,120,120,124,135,121,93,101
117,121,121,119,114,120,129,104,126,123,123,125,128,124,139,136,125,120,120,121,120,128,116,120,126,119,120,121,121,118,119,132,119,117,121,123,125,120,122,117,126,122,121,122,120,119,121,119,120,116,117,119,117,121,116,122,136,117,119,119,119,122,136,131,117,126,124,128,138,122,112,115,132,124,123,131,144,130,168,139,124,121,121,119,118,123,137,143,115,122,121,123,124,119,130,132,121,122,122,124,123,118,107,107,119,121,119,121,128,121,124,113,126,122,120,122,122,122,133,125,118,120,121,129,142,120,121,117
122,123,120,113,95,112,121,122,127,124,121,121,122,122,130,121,127,120,121,122,121,121,146,139,113,125,122,122,119,123,136,128,120,123,121,120,118,122,126,124,123,128,123,124,124,120,115,119,129,114,120,123,123,126,117,117,118,119,118,116,108,115,122,129,119,122,122,124,122,117,112,134,125,123,121,124,128,122,122,130,111,119,120,121,117,117,122,96,134,124,122,125,129,133,161,147,120,122,120,117,118,119,130,123,120,121,120,122,124,120,95,114,124,122,122,124,126,134,146,118,123,124,121,117,108,117,121,140
117,116,121,121,114,119,132,111,115,120,119,120,122,128,110,112,128,124,120,121,121,114,117,125,108,120,121,120,119,128,132,98,140,124,124,130,142,120,137,154,114,119,119,120,126,124,128,115,113,118,119,121,121,123,108,119,127,115,117,113,98,122,129,113,115,124,121,123,130,124,129,104,113,116,118,116,118,121,117,111,127,127,123,123,121,130,116,127,135,118,122,122,124,131,135,118,118,120,119,127,147,123,129,122,109,119,120,112,85,113,122,106,132,126,123,125,127,131,137,148,120,123,121,123,123,124,129,132
112,120,120,119,115,119,113,98,126,122,121,119,115,118,117,147,115,120,119,120,119,122,114,112,113,123,122,122,121,125,128,103,126,122,122,122,123,124,124,133,123,120,119,120,121,119,116,118,128,122,120,121,117,116,117,120,121,126,120,120,119,118,109,116,116,113,119,119,114,118,116,128,121,119,120,125,132,115,117,113,114,124,120,124,128,119,123,118,123,125,123,122,117,118,107,93,118,117,119,118,114,118,111,114,128,122,119,116,106,118,122,141,116,122,120,122,113,117,124,114,124,121,122,122,125,123,134,128
115,120,118,119,121,119,92,104,129,122,121,120,121,125,140,135,123,123,121,123,134,126,126,124,126,117,120,120,118,116,118,112,115,117,121,120,121,126,116,123,121,120,118,119,112,120,99,113,120,127,122,123,117,119,122,130,130,116,120,121,122,122,120,123,126,119,120,122,124,121,128,121,118,126,125,132,162,134,130,147,110,119,120,124,128,123,132,96,117,122,121,121,117,119,116,149,127,121,121,124,127,123,113,122,112,120,120,134,181,129,124,113,121,124,122,121,119,126,119,121,120,123,122,121,121,120,133,126
136,129,121,122,126,119,118,117,125,114,120,122,121,118,119,107,129,129,123,125,129,126,131,188,114,117,117,120,116,118,128,116,130,119,120,120,121,118,110,111,124,120,120,122,120,119,127,114,113,124,122,122,121,128,110,105,114,121,121,122,120,121,119,111,127,124,121,128,148,125,146,129,124,121,121,122,119,123,121,121,121,120,122,124,128,126,137,125,134,121,120,118,122,119,129,126,108,122,120,121,115,119,121,109,129,124,121,121,120,121,147,134,120,116,120,122,121,118,93,103,123,115,117,119,119,119,122,121
113,122,122,122,121,119,110,114,121,123,122,123,126,120,124,114,123,117,120,120,107,115,111,133,134,121,120,121,118,127,134,127,113,120,119,121,124,118,115,115,124,117,119,124,134,120,123,124,119,121,121,121,117,114,111,108,126,124,122,121,126,124,129,142,117,121,122,121,120,119,111,111,121,115,119,120,119,116,114,116,107,129,123,122,119,125,128,113,129,116,125,126,120,130,148,126,113,126,120,124,123,125,113,109,118,124,123,121,120,121,129,126,111,119,119,120,120,121,111,110,133,120,122,123,124,118,126,128
111,117,119,121,120,118,112,112,118,125,122,122,118,117,121,118,118,122,120,122,121,124,133,117,121,122,122,122,123,126,123,123,122,122,121,120,107,120,113,117,117,117,121,118,111,116,123,109,117,123,119,122,121,121,110,109,120,122,120,121,122,122,128,115,124,120,120,114,101,113,98,116,140,124,125,135,149,127,112,140,119,120,121,121,129,126,118,129,118,124,122,122,120,124,139,121,122,125,123,123,122,125,123,109,123,117,118,120,121,121,124,124,116,121,119,114,96,118,97,104,112,126,122,122,119,120,129,115
141,118,119,121,120,123,112,117,117,123,120,119,118,123,131,133,121,120,119,117,105,113,118,118,124,122,121,123,134,120,125,130,117,121,120,121,119,119,116,119,120,119,120,120,118,117,114,112,131,124,121,122,125,117,122,115,113,122,121,120,117,119,104,98,119,122,121,123,124,122,141,128,120,120,120,120,124,123,120,118,115,123,118,114,102,122,98,96,111,113,122,126,124,119,110,111,121,125,120,122,122,120,120,108,121,121,121,121,121,119,126,133,126,123,121,122,125,118,124,118,121,121,120,119,108,117,120,124
123,123,121,122,120,117,119,111,121,122,121,121,115,121,106,116,126,125,122,123,116,119,127,127,125,118,120,125,141,122,131,147,117,118,119,118,114,117,102,109,130,129,124,123,112,120,121,126,118,112,118,120,121,121,133,125,113,118,120,127,143,123,121,116,128,122,121,123,127,119,111,118,114,122,122,118,115,121,112,119,130,118,119,120,121,125,110,115,130,124,121,122,122,119,128,128,119,122,122,122,107,108,100,114,116,122,121,126,132,120,126,117,124,118,118,119,117,117,114,120,121,119,121,121,119,127,153,144
125,121,122,126,127,129,134,121,122,120,120,121,118,113,134,127,117,121,121,123,123,120,121,115,115,124,122,122,121,123,144,109,123,126,123,123,123,127,121,121,116,124,123,124,138,128,115,110,124,119,121,124,122,120,123,128,113,119,119,121,119,118,108,106,127,119,120,121,122,125,131,134,113,121,119,120,121,117,106,99,117,124,123,121,104,119,108,125,143,125,123,123,124,126,175,128,113,116,117,120,122,121,108,100,110,122,121,122,121,118,120,119,122,127,122,119,113,121,132,127,125,120,121,124,126,123,126,122
108,127,123,122,121,123,118,124,124,118,120,116,103,118,117,109,123,122,121,126,139,122,127,136,109,115,117,117,114,119,114,105,128,124,125,138,174,130,124,126,119,125,123,126,132,125,127,119,129,123,121,121,119,115,107,117,119,116,120,121,116,118,120,117,116,117,122,123,122,123,142,121,130,126,122,121,123,121,122,137,113,119,120,122,122,122,133,104,121,119,121,119,113,123,131,126,125,124,123,126,137,131,121,105,117,117,120,125,122,118,116,123,120,121,120,120,119,121,124,107,131,120,121,121,120,123,134,134
109,119,119,119,117,122,118,108,119,120,121,122,121,117,115,116,118,122,121,121,119,114,112,111,121,122,121,123,122,120,119,126,126,118,120,122,123,124,136,126,116,122,121,123,122,118,120,114,117,125,121,124,127,118,114,105,131,121,122,123,112,121,143,134,120,115,119,117,112,129,107,110,138,124,120,118,112,117,103,120,115,123,121,119,111,117,119,113,121,125,122,123,121,123,135,122,127,124,122,122,119,116,129,164,121,120,120,122,117,118,122,130,110,119,119,119,115,119,106,112,130,124,121,122,118,110,92,100
133,120,122,119,110,124,133,150,115,123,119,120,119,120,120,111,119,121,121,122,121,117,135,134,128,118,120,122,122,122,123,124,115,118,120,119,117,115,113,97,114,122,122,122,126,128,123,141,116,122,119,117,114,115,114,97,125,125,123,123,122,127,130,127,123,120,120,121,121,121,125,119,116,118,120,118,114,117,113,117,122,122,123,128,136,121,131,133,103,122,121,116,108,124,132,120,137,127,122,124,122,123,134,121,125,116,119,121,120,120,139,127,109,121,122,122,119,119,113,116,139,131,124,124,125,128,133,138
119,122,123,123,122,119,126,109,113,118,119,122,122,122,118,108,121,123,120,120,108,117,115,112,131,125,124,123,119,130,149,166,122,120,119,120,118,119,113,124,126,122,120,120,120,122,128,113,116,117,119,121,121,118,131,137,131,122,121,123,121,122,120,123,117,119,122,122,122,125,126,116,126,126,121,122,121,120,123,145,121,120,121,122,122,127,138,115,117,120,119,120,118,115,116,100,130,120,122,123,121,118,127,150,111,123,120,122,121,121,116,110,120,120,121,122,122,122,119,118,120,121,120,120,119,120,125,123
119,123,121,119,122,124,123,125,117,124,122,122,122,122,123,124,125,119,119,121,120,118,123,114,120,121,121,122,122,125,125,123,118,121,121,122,121,120,118,114,127,121,120,120,118,119,122,121,123,123,121,122,125,125,136,126,120,121,122,122,120,123,134,123,116,124,121,122,119,114,114,107,120,113,121,121,117,124,134,131,121,126,121,120,116,124,138,141,125,123,121,124,124,116,125,114,115,119,120,121,120,120,125,122,128,125,121,120,112,117,103,113,116,117,121,121,116,124,113,109,122,126,121,122,120,119,115,114
115,121,122,122,122,132,132,121,131,120,119,119,118,119,99,103,118,117,121,121,116,118,144,120,122,125,122,123,128,121,110,137,102,121,121,122,121,127,145,113,130,111,119,121,121,125,126,125,114,125,121,122,122,124,121,111,117,122,120,121,119,119,111,113,123,122,122,120,114,120,125,114,118,122,120,121,122,123,110,113,110,115,120,122,124,119,112,109,138,128,123,119,104,121,163,174,116,121,121,121,114,120,113,96,116,121,121,122,124,118,108,124,131,110,119,119,110,115,114,101,115,121,119,118,116,119,117,112
123,124,121,125,139,129,151,143,114,124,122,121,117,118,120,103,124,121,120,121,120,126,121,121,127,113,118,119,122,118,119,135,125,120,120,120,124,131,126,117,114,124,122,127,141,124,124,127,123,120,120,121,119,122,133,126,124,121,120,122,121,118,109,111,116,119,119,120,120,119,113,110,127,124,124,125,138,122,121,127,122,120,121,120,108,118,126,123,118,126,121,121,121,127,115,118,131,115,119,120,121,120,118,117,120,124,120,121,126,119,117,122,107,124,122,117,111,114,98,85,123,123,122,122,118,122,104,115
113,120,120,121,121,119,118,116,128,122,121,121,119,118,121,128,120,121,121,121,121,119,123,111,118,123,121,125,141,136,128,136,118,120,120,120,115,115,103,108,131,122,123,122,113,120,142,142,120,124,121,123,125,118,113,111,121,122,123,122,115,123,126,122,115,123,122,120,120,119,117,114,117,120,118,119,118,118,110,105,132,118,120,122,122,123,150,165,111,128,122,122,128,120,119,108,122,114,119,123,121,113,127,129,127,112,119,120,123,121,86,100,115,122,121,124,113,116,124,117,120,126,121,119,111,116,115,105
123,119,120,122,119,124,111,123,117,119,120,123,124,115,120,122,121,120,120,122,127,124,107,111,115,124,122,121,118,123,156,124,128,118,120,121,120,123,115,127,112,124,121,124,130,127,124,112,122,116,121,124,132,122,126,124,139,126,120,121,121,123,135,148,115,116,119,120,118,118,109,108,126,125,123,123,121,116,125,120,119,121,120,120,118,118,112,122,123,124,120,121,120,118,116,101,118,117,121,121,120,124,132,108,123,122,119,121,123,122,112,144,119,118,119,115,99,116,120,121,116,120,118,123,113,114,118,107
127,120,122,121,117,122,110,126,116,122,122,121,120,122,122,114,118,121,119,119,114,115,110,123,121,124,121,123,121,117,118,119,122,120,120,121,119,120,125,132,116,120,121,120,120,118,116,113,126,122,118,122,130,122,118,131,124,124,121,119,108,116,118,121,129,123,123,123,124,125,135,139,114,117,119,121,120,116,112,87,130,124,121,119,113,122,125,162,117,121,120,118,110,113,123,109,117,125,122,122,119,113,131,109,132,126,123,123,129,127,129,172,114,117,122,122,118,118,118,104,131,125,121,120,116,122,136,134
123,124,121,122,117,122,145,124,108,120,121,122,122,119,112,94,138,122,122,127,138,126,133,190,116,123,121,121,123,122,121,107,120,121,120,118,105,115,118,109,121,123,121,121,122,121,124,110,120,122,122,123,119,120,120,137,132,122,123,129,148,128,126,144,110,122,122,123,118,120,121,103,112,119,118,118,109,111,103,105,134,123,122,123,124,126,148,147,106,120,121,121,128,118,98,89,118,120,120,121,119,117,119,121,111,119,120,121,113,119,107,109,141,119,120,120,118,118,119,119,109,119,119,118,103,116,112,120
129,124,121,122,119,118,124,113,114,117,120,123,119,119,119,110,128,120,120,120,119,116,99,116,122,126,123,120,116,126,114,120,109,120,119,118,116,117,113,96,127,118,119,120,123,124,117,130,119,122,119,118,114,127,130,117,110,124,124,121,114,119,114,103,129,120,119,124,125,122,134,127,118,117,119,119,119,122,126,126,119,119,121,121,117,121,120,122,120,122,120,122,123,125,128,116,130,131,124,123,121,123,132,123,112,115,121,122,122,122,110,114,115,119,120,121,120,120,138,122,124,123,121,122,122,122,105,114
115,117,120,119,114,117,113,112,124,120,121,121,113,116,126,123,125,118,118,120,122,121,119,131,113,119,120,122,122,120,120,116,119,122,122,128,143,122,141,126,127,127,125,128,126,119,103,126,114,121,122,122,121,125,143,120,127,119,119,122,123,118,108,110,118,122,121,123,129,128,116,109,128,116,121,120,117,118,123,169,122,123,122,126,138,122,123,137,118,121,120,119,110,118,114,127,116,123,122,125,123,123,124,117,127,121,121,122,119,119,121,111,113,118,119,119,123,131,106,113,123,123,121,123,120,121,113,120
123,121,121,123,125,118,115,121,120,117,120,121,121,122,121,108,117,121,121,123,129,121,116,112,115,123,122,122,118,123,123,110,125,124,122,122,129,122,119,121,119,115,121,121,117,117,110,102,121,125,122,121,117,123,133,137,119,123,120,119,121,117,118,123,117,119,121,131,149,119,108,109,114,122,120,119,117,116,106,119,132,126,123,121,123,122,126,159,118,120,122,121,117,116,116,107,115,120,119,119,119,123,124,109,119,123,121,122,125,121,108,102,127,122,121,122,124,123,127,180,119,123,123,123,122,115,119,99
120,121,120,121,117,117,124,117,119,120,120,119,119,118,113,116,124,126,119,117,113,121,122,124,121,118,119,122,122,123,111,121,119,123,121,122,122,120,119,119,119,123,120,120,119,118,88,103,121,118,119,121,124,123,141,130,123,122,121,122,123,124,127,134,113,123,122,121,118,116,108,97,121,122,119,121,121,123,131,141,128,114,119,120,120,121,117,99,117,126,122,121,117,125,136,142,111,115,120,121,122,122,91,94,119,119,118,119,114,122,116,144,126,124,122,121,122,122,131,126,124,122,121,120,111,124,109,121
112,123,120,117,109,115,117,101,118,120,120,121,113,118,116,117,118,121,121,123,120,118,118,117,118,121,121,119,119,126,119,107,121,119,119,122,127,119,111,133,111,123,122,121,119,118,120,110,131,119,118,121,121,121,122,109,108,121,121,121,123,122,119,94,123,118,122,124,126,129,163,185,117,121,120,121,120,118,119,108,129,122,122,120,118,121,119,135,120,120,120,121,121,121,131,122,116,119,120,121,115,117,118,120,121,125,123,123,122,123,125,119,121,122,121,121,118,120,106,115,121,121,122,122,129,123,124,121
118,119,119,117,113,118,117,119,118,120,120,122,123,124,127,112,121,119,118,120,120,119,118,116,121,124,123,122,132,124,125,126,113,125,120,123,120,115,124,121,133,121,120,121,120,126,145,132,122,114,121,121,120,123,112,114,118,129,124,125,124,124,119,133,121,122,121,123,121,122,119,111,120,123,121,118,111,116,112,115,129,119,121,122,122,119,117,123,116,119,119,121,119,120,106,104,115,119,120,122,130,124,105,101,132,127,122,114,99,118,133,174,124,119,119,124,141,125,120,113,114,122,121,121,119,123,118,113
125,122,120,122,121,123,122,102,122,117,119,120,122,120,130,142,119,126,123,123,124,120,121,115,120,122,121,121,120,118,117,115,117,122,121,123,122,123,124,122,127,118,118,118,116,122,126,132,119,121,121,121,121,121,134,118,122,123,122,124,120,118,126,126,118,119,119,122,121,118,109,113,120,121,121,123,122,121,125,121,121,121,121,121,118,118,117,123,121,122,121,122,122,122,138,118,115,123,121,121,114,116,108,97,140,125,122,122,114,118,125,150,117,115,121,123,122,125,127,131,123,126,121,123,123,127,152,129
116,123,123,121,120,119,122,113,121,120,119,121,120,120,121,118,126,125,123,122,119,122,127,140,122,120,122,125,123,121,131,123,112,120,119,120,121,119,111,88,134,125,122,122,120,118,127,161,121,125,122,124,127,124,134,117,114,122,122,123,125,123,122,113,100,122,120,121,116,118,121,115,136,113,118,120,112,116,131,134,120,123,122,132,151,119,106,109,120,134,126,123,123,125,132,124,124,119,120,121,120,121,130,134,118,113,118,121,120,121,126,121,122,121,120,121,120,120,124,130,109,120,121,123,122,121,120,101
129,123,121,121,125,117,114,107,120,123,122,121,120,121,141,125,118,120,118,121,121,119,126,124,120,121,122,125,124,124,136,119,124,122,122,122,121,122,132,138,119,120,119,116,104,125,124,116,116,118,120,123,117,118,110,92,132,126,120,117,109,125,103,152,111,118,120,121,113,115,116,101,115,119,120,121,121,121,118,114,121,118,121,121,120,119,119,125,121,125,122,124,125,124,125,114,121,124,122,122,125,120,112,121,121,123,121,122,121,116,123,120,114,119,118,120,120,125,115,102,124,119,121,123,121,126,143,144
125,119,119,116,115,123,110,98,118,125,123,124,113,116,119,120,114,120,120,122,122,118,126,118,126,120,119,119,119,118,108,107,119,123,121,123,127,122,129,118,111,118,120,119,113,117,129,110,130,123,124,124,124,128,142,120,121,121,121,123,124,125,123,125,118,119,118,120,121,122,114,113,124,120,121,121,120,116,120,116,124,127,123,126,133,126,129,128,122,121,121,123,121,122,123,125,112,121,118,116,113,113,107,107,121,118,120,121,117,119,122,116,124,122,122,122,122,119,119,119,113,123,122,123,124,121,131,110
138,126,125,121,120,122,139,143,114,123,119,120,117,118,115,111,109,117,120,121,120,121,105,119,125,120,121,123,124,122,121,119,120,123,122,123,121,124,140,121,122,124,123,121,117,121,120,129,123,125,121,121,120,119,129,120,112,122,120,121,121,119,102,115,129,118,120,122,120,119,131,133,113,125,122,122,122,121,119,111,122,124,122,123,122,117,119,121,117,123,121,119,123,120,127,114,123,120,121,120,116,122,144,143,114,117,119,122,122,120,105,111,123,127,121,121,123,116,108,115,129,119,122,123,121,122,128,148
119,119,122,125,123,125,140,111,113,123,120,121,121,126,112,129,131,119,120,120,117,112,99,113,126,124,120,122,122,120,128,119,125,124,123,122,117,124,122,132,127,123,121,120,116,123,124,134,122,126,123,123,120,121,117,136,119,118,120,120,120,125,122,105,119,119,120,120,118,118,121,114,118,122,121,122,122,118,110,118,117,129,123,123,125,123,124,120,115,122,120,121,120,123,118,109,129,111,117,121,120,122,107,121,121,121,119,121,119,120,127,112,124,123,120,121,122,122,109,119,120,122,121,121,119,119,115,110
121,121,121,119,110,114,118,119,113,122,122,123,120,121,119,101,117,122,121,120,117,116,118,127,129,120,121,121,120,121,136,126,127,121,122,122,120,121,120,128,110,120,118,122,130,127,119,100,129,123,122,123,124,126,143,144,118,126,122,122,126,124,124,117,132,118,120,121,121,124,127,149,117,117,117,119,120,122,98,108,120,122,122,124,124,117,124,116,122,123,122,121,123,125,118,124,114,122,122,123,118,118,118,106,118,116,118,120,130,119,117,114,107,119,119,121,125,116,113,95,127,121,120,122,122,118,132,144
116,121,122,121,121,125,140,130,120,122,121,122,121,120,118,115,120,122,120,121,121,126,122,112,125,125,121,122,119,122,127,118,119,118,123,121,117,121,119,135,127,124,118,119,120,119,116,113,124,119,121,122,120,125,143,126,119,120,120,118,112,120,117,126,116,125,123,124,119,124,113,106,127,125,120,119,118,124,127,121,110,112,120,121,121,122,108,129,122,124,120,122,128,135,148,130,125,124,123,119,109,116,127,122,112,121,121,121,119,119,119,107,129,121,123,129,140,132,134,126,133,125,121,121,118,121,143,130
117,122,123,131,153,125,122,114,121,120,123,124,129,120,111,118,123,124,121,120,117,119,116,118,114,121,121,122,120,117,107,98,118,114,120,121,123,124,125,135,121,124,122,126,124,120,116,109,130,126,124,123,122,120,134,133,116,119,120,121,119,111,116,108,137,119,120,121,120,128,128,144,113,127,121,122,119,117,128,120,114,120,121,121,118,115,105,107,112,119,118,120,121,120,134,115,128,121,122,121,119,119,111,125,125,126,124,122,128,129,135,128,117,122,122,128,143,123,124,115,119,121,121,120,117,120,125,118
