119,121,121,123,123,122,122,120,121,121,121,121,120,120,121,119,120,121,120,122,121,121,121,119,121,122,122,123,122,122,122,122,122,122,120,122,119,117,121,122,120,121,121,121,120,121,121,118,121,121,120,121,122,121,121,121,121,122,121,121,120,122,121,121,120,121,121,122,121,121,121,121,121,121,120,122,122,123,121,121,121,121,121,122,119,119,121,120,120,121,121,122,122,122,121,119,120,121,121,122,122,121,120,120,120,121,121,121,119,120,120,120,121,121,121,122,122,122,122,121,121,122,121,121,120,121,122,120
119,120,121,122,121,122,122,121,121,122,121,121,120,120,121,121,121,122,121,121,121,120,121,121,121,121,120,121,121,121,121,119,121,122,121,122,121,121,122,121,120,122,121,123,121,119,120,119,120,122,121,122,120,120,121,120,121,121,120,122,121,122,125,131,120,122,121,122,120,118,114,109,121,122,122,122,121,121,123,124,121,122,121,121,121,122,122,121,121,122,121,122,121,122,121,121,120,121,121,122,120,118,122,120,120,122,121,122,122,121,120,121,120,121,121,122,120,121,121,119,120,122,120,120,121,123,121,121
121,121,121,122,121,120,121,120,120,121,121,122,124,122,121,120,121,122,120,121,120,121,121,121,121,121,121,122,121,123,123,121,121,121,120,121,121,119,120,120,121,121,121,121,121,121,123,120,121,121,120,121,121,121,122,121,120,121,121,122,122,122,120,119,121,122,121,121,119,119,120,121,121,121,121,122,123,122,121,120,122,122,121,122,121,122,124,130,118,121,121,122,122,120,118,110,122,121,120,121,120,121,122,123,121,122,121,121,121,120,122,123,120,121,121,122,122,123,122,120,121,122,121,122,120,119,120,120
121,121,122,121,120,121,123,120,120,122,121,121,123,121,122,120,121,121,120,122,121,121,122,120,120,122,121,122,121,123,121,120,121,121,120,121,121,119,121,121,120,121,121,121,121,121,122,120,121,121,121,123,122,123,122,120,120,121,121,122,121,121,122,121,121,121,120,121,121,121,121,120,121,122,121,121,121,122,122,121,121,122,121,122,121,121,121,123,120,122,121,122,122,121,122,117,121,122,121,121,120,121,121,122,120,121,121,122,121,121,122,120,121,122,122,121,120,120,121,121,121,121,120,122,121,122,121,121
120,121,121,121,121,122,122,120,121,121,120,122,121,121,121,120,120,121,121,122,121,121,122,119,121,121,120,121,120,121,121,120,121,122,122,122,123,123,123,121,120,121,121,122,120,119,123,125,118,120,121,122,122,121,120,114,122,122,121,122,119,119,121,124,121,122,121,121,121,122,122,121,121,122,121,121,122,122,121,121,121,122,121,121,119,119,119,120,121,122,121,121,119,119,122,120,121,122,121,121,123,123,122,120,121,122,122,123,122,123,120,121,121,122,121,121,120,120,121,120,120,121,121,122,121,121,122,123
121,122,120,122,120,122,122,117,120,121,121,122,121,120,121,120,120,122,121,123,122,121,120,120,121,122,121,122,121,121,122,120,121,122,120,121,120,121,121,121,120,122,121,121,121,121,120,121,121,121,120,121,121,121,121,121,120,122,121,122,122,121,120,120,121,122,121,122,121,121,123,118,119,121,120,121,121,119,119,120,121,121,121,122,122,120,120,129,120,122,121,122,121,121,121,113,121,121,120,121,121,122,123,124,121,122,121,121,120,121,122,121,121,122,122,123,122,121,121,122,121,122,121,122,122,123,121,121
121,122,121,121,117,119,121,123,121,121,120,121,122,121,121,116,120,122,121,122,122,121,121,120,120,121,121,122,122,121,122,120,121,122,121,122,122,124,122,121,121,121,121,121,120,121,123,121,121,121,120,121,120,120,121,121,121,122,121,121,121,122,122,121,120,121,121,121,121,121,121,120,119,121,121,122,121,121,121,120,121,122,122,121,120,121,121,120,121,122,122,122,123,122,123,131,120,121,121,122,121,122,119,111,121,121,120,121,121,120,122,123,121,121,121,121,121,121,122,121,122,123,122,121,120,119,123,121
120,122,121,122,122,123,120,121,120,121,121,122,122,121,121,120,121,122,121,122,121,121,122,116,121,122,120,122,121,120,122,122,120,121,121,122,122,121,121,120,121,121,120,121,121,122,122,121,121,121,121,121,120,121,123,120,121,121,120,121,122,119,117,121,121,122,121,122,118,121,121,121,120,121,120,121,121,121,121,119,121,122,121,121,121,121,123,121,121,121,121,122,121,120,121,119,121,122,122,122,120,119,120,114,119,121,121,122,121,120,121,121,121,122,120,121,121,122,122,121,121,121,120,122,121,122,121,122
121,122,122,122,121,122,122,123,120,121,121,121,121,121,120,119,121,122,121,121,120,122,121,121,120,122,121,122,121,120,120,121,121,122,120,121,121,121,122,121,121,122,122,122,122,121,122,121,121,121,120,121,120,122,121,120,121,122,121,121,120,120,123,121,121,121,120,121,121,119,116,119,121,121,121,121,120,121,122,121,120,121,120,122,122,122,122,121,121,122,121,121,121,121,121,121,120,121,121,122,122,120,121,120,121,122,122,122,122,121,121,121,122,122,121,122,122,121,124,126,120,121,120,121,121,121,119,109
120,122,122,122,121,121,121,123,122,121,120,121,121,121,122,121,120,121,120,122,122,123,121,120,121,122,121,121,119,118,121,121,120,121,120,122,121,120,121,120,120,121,121,122,121,121,120,121,121,122,121,122,120,119,121,124,120,122,122,122,121,122,121,119,120,121,121,122,122,122,123,119,120,122,121,121,120,121,120,120,121,122,121,121,121,121,122,121,121,121,121,121,121,122,123,120,120,121,121,121,120,120,122,121,121,121,121,121,121,121,122,121,121,121,120,121,121,122,122,121,120,120,121,122,121,120,119,120
120,121,120,122,122,122,121,119,121,122,121,122,120,120,123,121,121,122,121,121,120,120,119,127,120,121,121,122,122,123,120,109,121,122,121,122,117,121,122,124,121,122,121,122,123,122,121,121,121,121,120,121,120,120,122,120,121,122,121,121,121,122,123,121,122,122,122,122,122,121,120,121,120,121,121,122,120,119,122,120,121,122,120,121,121,123,122,123,121,122,120,121,121,122,121,120,120,121,120,122,120,120,121,120,121,122,121,122,123,121,121,120,121,122,121,122,119,120,121,121,121,121,121,121,121,120,121,121
120,121,120,121,121,122,122,120,121,121,121,122,122,120,120,120,120,121,121,121,121,122,122,120,120,121,121,122,122,122,122,121,121,122,121,122,119,119,121,121,121,122,122,123,121,121,122,118,120,122,121,121,120,120,121,119,121,121,120,121,122,122,122,124,121,122,120,121,120,120,121,120,120,121,121,121,122,121,121,120,120,121,121,122,121,122,122,120,121,121,120,121,121,120,123,121,120,121,121,122,122,122,121,120,120,121,120,122,122,121,122,120,121,122,121,121,119,118,119,119,121,122,122,122,127,127,122,120
121,122,120,121,117,117,121,123,121,121,120,122,121,120,121,120,120,121,121,122,123,122,120,119,120,121,121,122,121,123,122,120,121,122,121,121,120,119,117,120,121,122,121,122,121,122,122,120,120,121,120,122,122,122,122,121,122,122,122,121,120,121,124,130,120,121,120,121,121,120,118,109,121,122,121,122,121,120,120,123,120,121,121,122,122,120,121,120,121,122,121,122,122,120,122,123,121,122,120,121,121,122,120,118,121,122,121,121,121,121,122,121,121,121,121,121,120,122,122,121,121,122,122,122,121,121,121,121
120,121,121,122,122,120,121,120,121,122,121,123,121,120,121,120,121,121,121,123,121,120,121,120,120,121,121,122,121,123,124,120,121,120,120,121,121,121,120,120,121,122,120,122,121,120,123,121,120,121,121,122,122,122,121,118,120,122,121,121,119,120,121,121,121,121,120,122,121,122,121,121,120,121,121,122,122,121,121,120,121,122,121,121,121,121,122,121,121,122,121,121,120,121,121,120,121,122,122,122,122,121,120,111,120,121,121,121,120,121,120,120,121,122,120,121,122,121,122,123,121,122,120,121,120,119,121,121
120,122,121,122,122,121,121,120,120,121,120,122,122,121,122,120,121,122,121,122,121,121,121,119,120,121,121,122,120,122,122,120,122,122,121,121,121,122,123,121,121,122,122,122,121,120,121,121,121,121,121,122,122,122,123,121,120,121,121,122,121,122,122,120,121,121,120,122,121,119,121,121,120,121,121,122,121,123,122,119,121,121,120,121,121,122,122,121,121,122,121,121,121,121,121,121,121,122,121,122,121,120,120,120,121,122,120,121,121,121,122,122,121,122,121,122,121,121,120,111,119,121,121,122,122,122,121,121
121,122,121,121,121,120,121,122,121,121,120,121,121,121,121,122,121,122,121,122,121,121,121,122,120,122,120,121,120,119,121,118,121,121,121,122,121,121,121,121,121,121,121,122,121,122,121,121,120,121,120,122,121,121,123,121,120,121,121,121,121,121,123,121,121,122,121,121,120,121,120,120,121,122,121,121,121,121,123,121,121,121,122,122,120,122,122,120,120,122,121,122,121,120,121,120,120,121,121,122,121,121,120,121,121,121,120,122,121,121,122,121,119,121,121,122,121,121,122,120,120,121,121,122,121,121,121,120
121,121,121,122,121,120,121,120,121,121,121,122,122,122,121,121,121,122,121,121,120,122,122,130,120,122,121,122,123,120,119,109,120,121,120,121,121,122,123,124,121,122,120,121,121,121,122,122,121,122,122,122,121,121,122,122,120,122,121,122,120,119,120,118,120,121,120,121,121,121,121,120,121,121,120,122,121,121,122,121,120,121,121,122,121,121,122,121,121,122,122,121,120,121,122,120,120,121,121,122,122,120,121,120,120,121,120,121,120,121,122,120,121,122,120,121,120,122,121,121,122,121,121,121,121,122,123,122
120,121,121,122,121,119,119,119,121,121,121,122,121,122,124,130,119,120,120,122,121,121,119,109,120,121,121,122,122,122,121,122,121,122,122,123,122,120,122,122,121,121,121,121,121,120,122,121,120,121,121,122,121,123,122,119,120,121,121,121,122,123,123,120,121,122,122,122,121,119,116,120,120,121,121,121,120,119,123,121,121,122,121,122,121,122,122,122,120,122,120,121,121,121,122,118,120,121,121,122,121,122,122,121,121,121,121,122,122,121,122,120,121,122,121,121,120,121,120,121,121,122,121,121,122,122,122,121
120,122,121,122,119,117,122,120,119,121,121,122,122,120,114,119,121,122,121,122,123,121,122,121,122,122,121,121,120,122,120,112,120,122,122,121,120,120,121,121,121,121,120,121,121,121,122,122,121,122,121,122,121,122,122,121,121,121,121,122,121,121,121,120,121,121,120,121,121,121,122,121,121,121,120,121,120,120,121,120,120,122,121,122,120,121,121,120,121,122,121,121,120,121,122,120,120,122,121,121,120,120,121,120,120,121,121,122,122,121,121,120,120,121,120,121,121,120,121,120,121,122,121,122,122,122,122,122
121,122,121,122,120,120,121,121,121,122,122,121,119,119,120,120,121,120,121,121,124,122,122,121,120,121,120,123,123,122,121,120,121,121,120,121,121,122,122,122,121,121,120,122,121,121,121,117,120,122,121,121,120,121,120,118,120,121,121,122,122,120,121,121,120,121,121,122,122,121,121,121,121,122,120,121,120,122,121,120,121,121,120,121,120,121,122,121,120,121,121,122,123,122,122,121,121,122,121,122,121,122,122,120,120,122,121,121,120,121,122,117,120,121,121,122,120,120,121,121,121,122,121,121,122,121,122,121
121,122,121,121,120,121,121,120,121,122,120,121,121,121,121,121,121,122,121,121,121,121,121,121,121,122,121,121,120,121,122,120,121,121,121,121,121,121,122,121,121,121,121,123,122,123,121,120,120,120,121,122,121,121,121,121,121,122,121,121,121,122,123,127,120,121,120,121,121,122,119,109,121,121,120,121,120,121,121,123,120,121,121,122,121,119,121,121,120,121,121,122,122,122,123,122,120,122,121,122,121,120,120,120,120,121,120,122,121,122,120,117,121,122,121,122,122,122,122,122,120,121,121,122,122,121,122,120
121,122,121,122,122,121,120,120,120,121,121,123,122,122,121,119,121,122,121,123,120,121,122,121,121,122,121,121,121,121,122,121,120,122,120,122,121,122,121,121,120,121,121,122,122,123,121,119,121,122,121,121,120,120,121,120,120,122,121,122,121,119,119,120,121,122,121,121,120,120,121,121,121,121,120,122,122,121,122,121,121,121,120,121,120,121,123,124,120,121,122,122,121,120,119,116,120,121,120,121,121,121,121,122,120,121,120,122,123,123,122,120,121,122,121,121,119,117,121,121,120,122,121,122,123,122,123,120
119,121,121,122,122,123,122,123,120,121,122,122,122,120,120,117,119,121,121,122,122,123,120,121,121,121,121,122,121,121,121,119,120,121,121,122,122,121,121,120,120,121,121,122,122,121,120,120,121,122,121,122,122,121,121,120,121,122,120,121,122,122,122,120,120,121,120,121,121,121,122,120,121,122,121,121,121,120,120,120,120,121,121,122,121,124,122,120,121,122,121,122,120,121,121,120,120,121,120,121,120,121,121,120,121,121,120,121,121,121,122,122,121,121,120,121,121,121,120,111,120,121,120,121,121,122,122,123
121,122,122,122,121,121,123,122,121,121,121,121,121,121,120,121,121,122,121,122,121,122,122,120,121,121,120,121,121,121,122,121,121,122,121,121,121,121,122,124,120,121,121,121,120,121,119,116,120,122,122,122,122,120,120,119,120,121,121,122,122,120,122,120,121,121,121,122,121,121,122,121,121,121,121,122,122,123,122,121,120,121,120,122,120,119,121,120,121,122,121,122,121,122,121,120,119,121,121,122,122,122,120,120,120,122,121,122,122,120,120,121,121,122,121,121,120,121,122,121,121,122,122,122,122,121,124,128
119,121,121,121,121,121,119,112,121,121,121,121,121,121,122,123,121,122,121,122,122,121,121,121,120,122,121,122,120,121,121,120,120,121,121,122,122,121,121,120,121,122,121,122,120,121,122,121,121,122,122,122,120,121,122,121,120,122,121,121,120,121,120,120,120,121,121,121,121,121,121,119,120,121,121,122,121,121,123,119,121,122,121,122,120,122,121,122,121,122,122,122,121,120,122,121,121,120,121,121,122,122,122,121,119,121,121,122,122,122,122,119,121,122,121,122,119,118,117,119,121,122,121,123,123,122,122,121
120,121,121,122,122,122,121,119,120,121,121,122,121,121,124,131,119,121,121,122,122,121,118,109,122,122,122,123,121,122,122,124,121,121,119,121,120,121,121,118,120,122,121,122,121,120,121,121,120,121,120,122,122,123,121,122,121,122,121,123,121,120,121,120,120,121,121,122,122,120,120,119,121,121,120,122,121,121,122,117,121,122,121,121,122,121,121,121,121,121,120,121,121,121,121,121,121,121,120,122,121,121,121,121,121,122,121,121,121,121,122,121,121,122,122,122,120,118,121,120,120,121,121,122,122,123,122,120
121,122,122,122,122,121,122,121,120,121,120,122,122,121,119,120,121,122,121,121,121,121,122,121,121,122,121,121,120,121,121,120,121,122,121,123,122,121,121,121,121,122,121,122,121,121,121,120,119,121,121,122,121,121,120,120,121,122,120,121,121,121,121,118,120,122,122,122,122,121,120,119,121,121,120,121,121,121,122,120,120,122,121,122,121,122,121,121,120,121,122,122,121,121,121,120,120,122,121,121,120,121,120,117,121,122,122,122,122,121,123,121,121,121,120,122,121,120,118,120,121,121,120,121,121,122,122,121
120,122,120,121,120,121,122,120,121,122,121,121,121,122,122,121,120,120,121,121,120,120,122,120,121,121,120,122,121,122,121,121,119,121,121,122,122,122,121,120,121,121,120,122,121,121,122,120,120,121,121,122,121,121,122,120,120,121,121,121,121,122,121,120,120,121,121,122,121,120,121,119,121,122,121,122,121,120,122,121,120,122,121,123,121,122,122,115,120,121,120,121,121,121,120,120,120,121,121,122,121,122,121,121,120,121,121,122,121,122,122,120,120,121,121,122,125,120,121,121,121,121,120,121,120,121,123,120
121,122,121,123,121,120,121,121,121,122,122,122,120,121,122,120,120,121,121,122,122,122,122,120,121,122,121,121,120,119,121,120,120,122,121,122,120,121,121,121,121,122,121,121,123,121,121,122,120,122,121,122,121,120,119,119,121,122,121,122,121,121,122,121,121,122,121,121,121,120,121,121,121,121,120,121,121,121,122,120,120,121,121,122,121,122,121,120,120,120,121,121,120,121,121,121,121,122,122,122,120,120,122,120,120,121,121,121,122,122,123,120,120,121,121,122,121,121,117,119,121,122,120,122,119,119,122,120
121,122,121,122,122,123,121,121,121,122,121,121,121,120,122,121,121,122,121,121,121,121,121,121,121,121,120,122,121,122,122,121,121,122,121,121,120,120,121,120,120,122,122,122,121,122,120,120,121,122,121,121,119,121,121,120,121,122,121,121,122,120,122,120,121,122,120,121,121,121,120,121,121,122,122,122,121,120,122,121,120,121,121,122,122,122,122,120,121,121,120,121,120,120,121,121,121,122,121,121,121,121,122,121,120,121,121,122,122,123,121,120,119,121,121,122,119,117,119,119,121,122,121,122,123,121,121,120
120,122,121,122,121,121,122,120,121,122,122,122,120,120,121,118,121,121,121,122,122,122,122,120,122,122,120,122,121,122,122,122,120,121,120,121,121,121,122,121,120,120,121,121,121,121,121,120,122,122,121,122,122,121,123,122,121,122,121,122,121,120,123,129,120,122,120,121,121,120,118,109,120,121,120,121,121,121,122,123,120,121,121,122,121,121,120,120,121,121,121,122,122,120,121,120,120,122,121,122,121,121,120,120,121,122,121,121,119,117,121,121,120,122,122,122,120,121,121,119,120,121,121,122,122,122,122,121
120,121,121,121,121,121,121,121,120,121,120,121,120,121,122,121,121,122,120,121,121,122,122,123,121,121,121,122,122,122,122,116,121,121,121,122,122,120,121,121,120,121,120,122,120,121,121,121,120,120,121,122,122,122,122,121,121,122,121,122,122,121,121,121,121,122,121,122,120,121,121,120,121,121,120,121,121,121,121,121,119,121,121,121,120,121,120,112,120,121,121,122,122,122,121,122,121,121,121,122,120,121,123,122,121,121,121,123,121,120,119,120,120,122,121,122,121,122,122,120,121,121,121,121,120,121,121,121
120,122,122,122,122,120,122,121,121,121,120,122,121,122,122,121,121,121,120,122,121,122,122,121,120,120,120,121,122,122,122,119,120,121,121,122,121,121,121,121,119,121,121,121,121,122,121,119,121,122,122,122,120,121,121,121,121,122,121,121,120,121,121,121,121,122,122,123,122,122,122,124,120,122,121,122,120,119,121,117,121,122,121,121,121,122,122,122,120,121,120,122,121,121,121,121,121,121,121,121,121,121,122,120,121,122,121,122,121,119,120,120,121,122,121,121,120,121,120,121,121,122,121,121,121,120,121,118
121,122,122,122,121,122,122,121,121,122,122,123,119,118,120,121,121,122,121,121,121,121,121,120,121,121,121,122,121,121,123,120,122,122,121,122,122,123,122,117,120,122,121,122,120,119,120,122,121,121,120,121,122,122,121,120,120,121,121,122,121,122,121,121,120,121,120,122,121,121,122,121,120,121,121,122,121,121,120,120,121,122,121,122,121,122,122,120,121,122,121,122,121,121,121,121,119,121,120,121,121,121,121,122,121,122,120,121,121,121,121,120,120,121,121,122,121,120,121,120,120,120,121,122,121,121,123,121
120,122,121,121,121,121,120,120,120,121,121,122,121,121,121,120,121,122,121,121,121,121,122,121,121,122,121,122,122,122,121,121,121,122,121,121,120,121,122,121,121,121,120,121,121,122,123,131,120,122,121,121,121,120,120,109,120,121,121,122,121,120,121,123,121,122,121,121,121,121,123,123,121,122,121,122,120,119,119,117,120,122,121,122,122,122,123,125,121,122,122,121,121,122,121,117,121,122,122,122,121,121,122,121,121,121,121,122,121,120,122,121,121,122,120,121,121,121,122,121,121,122,121,121,121,120,121,121
121,122,121,122,121,121,121,120,121,122,121,121,121,121,121,121,121,122,121,122,121,121,121,120,120,121,121,122,121,120,121,120,121,122,121,122,121,121,121,120,120,121,121,122,122,121,122,120,121,122,121,121,121,122,121,120,121,121,120,121,121,121,122,121,120,121,121,122,121,122,121,120,121,122,121,122,122,124,122,121,121,121,121,122,121,118,121,119,121,122,122,121,121,121,122,121,121,122,121,122,121,121,120,114,120,121,120,122,121,122,122,120,121,122,121,121,121,121,121,122,120,121,121,122,121,121,121,120
121,122,121,122,121,121,121,120,121,122,121,121,121,122,121,121,121,122,120,121,120,120,122,120,120,121,120,122,122,122,121,120,122,121,121,121,121,122,121,124,120,121,121,121,120,121,121,116,121,121,121,123,122,122,121,121,121,122,121,122,119,120,122,121,120,122,122,123,122,121,121,122,121,121,122,122,120,120,121,118,121,122,122,122,122,122,121,120,120,121,121,122,122,120,121,120,120,121,121,122,121,121,122,120,121,122,121,122,120,122,120,120,121,122,122,122,120,120,121,121,119,121,121,122,122,121,122,119
120,121,121,122,122,122,121,119,119,121,121,122,121,122,121,120,120,121,121,122,121,122,120,112,120,122,121,121,121,122,122,122,121,121,120,121,121,120,123,122,121,122,121,121,120,121,120,117,120,121,121,122,121,120,123,123,122,122,122,122,122,123,122,121,120,121,120,122,121,121,122,121,120,121,121,122,121,121,121,121,121,122,121,122,121,121,121,120,121,121,120,121,121,121,121,121,121,122,121,123,121,121,121,120,121,122,121,121,121,122,123,121,119,121,120,122,122,122,121,119,121,122,120,121,121,121,122,121
121,122,120,121,121,120,122,120,120,121,121,121,122,122,121,121,121,121,120,121,120,121,121,121,120,122,121,121,121,120,122,120,121,122,121,122,121,121,122,121,121,122,121,123,121,121,121,121,120,121,121,122,120,120,121,120,121,122,121,122,120,121,121,120,121,122,121,122,121,121,121,121,122,122,121,121,120,121,121,121,121,121,120,121,121,122,122,121,121,121,120,122,121,121,122,120,121,122,121,122,121,121,121,120,120,121,121,122,122,122,121,120,121,122,121,121,120,121,122,120,121,122,121,121,120,120,122,121
120,122,122,122,121,121,120,120,120,122,121,123,121,120,121,120,121,121,120,122,121,123,122,121,121,122,121,121,121,122,122,121,121,121,120,121,120,120,120,116,121,122,122,121,121,120,121,121,121,122,122,123,121,121,122,121,121,122,120,121,120,120,122,121,120,121,120,122,122,122,122,122,121,121,120,121,121,121,121,121,121,121,120,121,120,121,121,120,120,121,120,121,121,121,121,121,121,121,121,122,122,121,121,120,122,122,121,121,120,121,124,131,119,120,120,122,123,121,118,109,121,121,122,122,121,122,123,123
120,122,121,122,122,122,120,120,121,122,121,121,120,119,122,122,120,121,121,121,121,122,121,121,121,122,122,122,121,122,121,122,121,122,121,122,120,120,122,123,121,122,121,121,121,121,120,118,120,121,120,121,121,121,122,121,121,121,121,121,121,121,121,120,120,121,120,121,121,120,122,121,121,122,120,121,120,121,122,120,119,121,121,123,122,121,120,119,121,121,120,121,120,121,121,121,120,121,121,122,121,121,120,119,121,122,121,123,120,120,121,121,120,121,120,122,122,122,121,120,121,121,121,122,121,121,122,121
122,122,122,122,122,122,121,121,120,121,121,122,122,121,122,120,121,121,121,122,121,121,121,120,120,121,121,122,121,122,121,121,121,122,121,122,122,122,123,118,118,121,120,122,120,120,119,119,120,121,121,122,121,121,121,120,120,121,121,121,121,121,122,120,121,121,120,121,121,121,121,121,121,122,120,121,121,121,121,121,121,121,120,121,121,121,123,124,120,122,121,122,121,121,120,116,120,121,121,121,121,122,121,117,119,120,121,122,121,120,122,120,121,122,120,121,121,123,122,123,121,122,121,122,118,117,121,121
121,122,122,122,123,123,121,120,121,122,121,121,121,120,121,120,120,120,121,122,121,122,122,120,121,122,122,121,121,121,121,121,121,122,121,122,121,120,121,120,120,122,121,123,121,121,121,120,121,122,121,122,121,120,121,120,120,122,121,122,121,122,121,120,120,121,122,122,122,120,122,120,121,122,121,122,121,122,122,121,121,122,121,122,121,118,122,120,121,122,121,122,121,121,120,120,120,121,120,121,121,121,122,120,120,122,121,121,121,121,120,120,120,121,121,122,120,121,122,121,122,122,120,121,121,121,121,121
120,122,122,122,121,120,122,122,120,121,121,122,122,122,119,118,121,122,121,121,121,121,121,122,121,122,121,122,120,122,121,121,120,121,120,122,121,122,122,120,121,122,121,121,121,120,121,120,120,121,121,122,121,121,121,120,120,121,122,122,121,121,122,119,120,121,121,122,121,120,122,120,121,121,120,121,121,122,122,121,121,122,122,122,119,116,120,121,120,121,121,122,121,123,122,121,120,121,121,123,122,121,120,120,120,121,121,122,122,122,122,119,119,121,121,122,121,121,120,118,121,121,121,122,121,120,121,122
121,122,121,122,122,123,122,121,120,121,121,122,122,121,121,120,120,120,120,122,121,121,122,121,121,121,121,122,122,121,122,123,120,122,121,122,121,120,121,116,121,122,121,121,120,121,122,121,120,121,121,122,122,122,121,120,120,121,121,122,121,122,122,120,121,122,121,121,121,121,121,121,120,121,121,121,122,121,119,119,121,121,120,121,120,120,121,121,121,121,120,121,122,122,122,121,121,121,121,122,123,122,121,121,119,121,121,121,120,119,121,119,121,122,121,122,121,122,122,120,121,122,121,121,121,121,121,120
120,122,121,122,121,120,120,121,121,122,121,122,121,121,122,121,120,122,121,121,120,121,121,120,120,120,121,122,122,121,122,120,121,121,120,121,119,120,121,121,121,121,121,122,123,121,121,120,121,121,121,122,122,123,121,121,120,121,121,122,121,121,121,120,120,122,121,122,121,120,121,119,120,121,121,122,121,122,122,119,121,122,121,121,121,121,122,120,119,121,121,122,121,123,121,120,121,122,121,121,119,118,121,120,120,120,121,122,122,122,121,122,121,122,121,121,120,119,120,118,120,121,121,122,123,122,120,120
121,122,121,121,120,120,121,121,121,122,121,122,120,121,122,120,121,122,121,122,120,121,122,125,120,122,121,121,121,121,119,110,119,120,121,122,122,122,120,122,120,121,121,122,122,122,121,121,121,122,121,121,119,120,122,121,120,122,121,122,122,122,121,121,121,122,120,121,121,121,121,120,120,122,121,122,120,121,121,120,121,121,120,121,123,122,121,121,120,121,121,122,121,123,122,120,120,121,121,122,121,121,121,120,121,121,121,121,121,119,121,121,120,122,121,122,121,121,122,120,121,122,121,121,121,120,121,121
121,122,120,121,120,120,122,120,121,122,121,121,121,121,122,121,121,121,120,121,121,121,121,117,120,122,120,122,121,121,121,121,121,122,120,121,120,120,121,119,120,121,120,121,122,121,121,121,120,120,120,122,121,122,121,121,120,121,121,122,122,123,122,119,121,122,121,122,119,120,121,121,121,122,121,121,122,122,121,121,121,122,121,122,120,120,121,121,120,122,121,121,120,121,121,121,121,122,121,121,120,121,122,120,121,122,121,122,122,121,123,121,121,122,122,122,120,121,121,120,120,122,121,122,121,122,120,120
119,121,121,122,121,121,120,119,121,121,120,121,121,121,121,121,121,122,121,122,122,120,122,123,121,121,120,122,121,121,121,118,120,120,120,122,121,122,121,120,121,122,121,122,121,120,121,121,121,122,121,121,120,120,121,121,120,121,121,122,121,121,122,120,121,122,121,121,121,121,121,121,120,121,121,122,121,122,121,120,121,122,121,122,121,121,123,121,120,120,120,121,121,121,119,118,120,120,121,121,121,120,121,122,120,122,121,122,120,120,118,120,121,122,121,122,122,122,123,121,121,122,120,121,121,122,122,121
121,121,120,121,121,121,122,121,120,121,121,122,121,121,120,119,121,121,120,121,121,121,121,120,120,122,121,123,122,121,122,121,121,121,120,122,120,121,123,120,121,122,122,122,121,121,122,121,120,121,120,122,121,121,121,120,121,122,121,121,121,122,123,121,120,121,121,122,122,119,116,119,120,121,121,122,122,122,121,120,121,122,121,121,121,120,121,121,120,121,121,122,121,122,122,120,120,122,122,123,122,122,121,121,119,120,121,122,121,121,121,120,121,121,121,121,121,122,121,120,121,122,121,121,121,121,122,121
121,121,120,121,120,121,123,121,120,120,121,122,121,120,120,119,121,121,120,122,122,121,121,120,120,121,121,122,122,122,122,121,121,122,121,121,121,121,121,121,120,121,121,122,121,121,120,119,120,122,121,121,121,121,123,122,121,121,121,122,121,120,119,121,121,122,120,121,120,119,121,119,121,121,120,121,120,120,122,122,120,120,121,121,121,122,122,120,121,121,120,122,122,122,122,121,121,121,121,122,121,123,122,120,121,122,121,121,122,120,121,121,120,121,121,122,121,122,124,119,120,121,120,121,121,121,124,120
121,121,120,121,121,123,122,121,121,122,121,121,121,121,120,121,121,123,122,123,121,121,122,122,121,122,121,123,121,122,123,121,120,121,120,120,120,120,119,119,121,121,121,122,122,122,123,121,121,122,122,123,120,122,121,121,120,121,121,122,123,122,122,120,119,120,121,120,121,121,120,118,121,122,121,124,120,120,121,120,121,122,122,122,122,120,121,120,121,122,121,123,121,121,123,121,118,118,118,119,120,119,118,119,121,121,122,123,123,123,122,120,121,122,121,122,120,120,121,120,120,121,121,122,121,121,120,120
121,122,122,122,121,122,120,120,120,121,121,125,121,122,122,120,121,122,119,112,122,121,120,121,121,122,122,133,122,122,122,120,121,122,121,123,120,121,121,120,121,122,121,122,120,120,122,119,120,122,121,122,122,122,122,119,121,121,121,122,122,122,123,121,120,121,121,120,120,119,119,120,122,122,121,125,123,124,124,122,120,121,121,121,120,121,121,120,120,122,121,122,120,120,122,120,120,121,121,123,125,123,121,118,121,122,122,122,120,121,120,122,121,121,120,122,121,121,121,120,120,121,120,121,121,120,121,119
121,122,122,122,121,121,123,122,122,124,122,122,121,120,121,120,120,122,121,123,121,121,122,120,121,122,121,121,123,124,123,121,122,122,120,123,124,123,123,123,123,123,122,126,119,119,120,122,119,120,120,112,122,123,122,119,121,121,120,121,121,122,121,120,121,123,121,117,121,121,121,121,121,123,123,125,122,120,120,121,121,122,121,120,118,119,122,121,120,121,121,122,124,123,122,121,120,120,120,122,120,121,121,121,121,122,120,121,121,121,122,121,120,121,121,123,121,122,123,120,120,121,120,121,121,120,122,120
121,122,121,125,122,123,123,119,122,122,121,120,121,120,121,121,119,120,120,121,120,120,121,119,120,122,123,132,122,123,121,119,121,123,125,133,122,122,123,120,120,119,113,108,122,121,118,120,123,123,122,125,122,123,123,123,118,119,121,117,121,120,121,119,121,122,121,118,119,120,122,120,120,120,120,123,122,119,120,121,122,122,121,119,119,122,123,121,123,123,123,122,121,122,123,123,122,123,119,129,124,122,120,120,122,123,125,117,121,124,129,123,123,126,122,128,124,122,125,124,125,124,119,134,128,129,127,123
116,116,125,153,114,118,119,118,121,122,117,107,124,126,125,117,122,121,123,127,120,116,127,125,124,127,125,130,123,121,115,117,119,126,121,130,121,120,131,124,118,106,102,87,124,117,112,118,118,126,118,119,124,126,124,123,119,120,123,135,120,123,126,121,114,125,123,115,115,106,95,112,123,128,131,157,124,129,132,128,124,116,118,83,121,113,119,115,126,129,131,142,119,122,112,120,116,114,116,98,118,120,127,119,131,123,127,147,125,124,130,134,117,121,123,119,114,122,135,118,112,140,99,119,131,113,81,107
124,101,122,183,116,119,143,137,114,105,122,125,116,109,81,89,122,127,106,83,126,140,160,124,115,117,120,124,108,111,116,134,123,133,122,90,125,129,118,108,122,103,117,126,129,115,134,124,125,130,123,125,128,123,120,127,121,125,122,121,113,118,134,125,118,120,112,130,133,120,95,110,126,130,119,109,120,123,119,124,124,118,129,145,118,118,130,121,122,119,112,97,130,123,123,123,125,130,133,136,117,120,120,118,119,109,110,114,125,119,126,122,120,129,117,110,116,119,120,120,120,122,118,123,116,120,119,119
122,129,140,182,138,119,123,123,122,135,140,127,117,141,146,127,116,105,103,61,108,102,74,104,125,127,116,124,116,123,126,125,123,122,126,128,65,124,127,123,117,128,116,121,27,128,131,121,118,107,118,134,0,120,116,118,125,126,121,122,0,126,125,120,114,115,113,122,83,125,112,116,122,132,125,129,241,121,125,121,122,113,122,157,242,122,119,121,116,118,118,105,240,102,61,101,123,121,124,139,207,118,118,124,122,123,104,63,98,125,132,125,119,119,124,114,103,123,123,120,126,129,131,113,145,126,126,125
117,111,102,97,129,116,118,118,122,122,124,116,124,119,123,119,124,136,123,129,141,125,127,122,120,117,106,131,122,124,127,117,119,113,148,143,129,118,104,117,124,131,120,101,134,102,116,127,131,133,115,87,114,122,120,118,128,108,119,147,122,112,149,127,112,128,125,97,90,112,60,102,125,107,123,125,118,132,117,128,125,142,119,88,134,120,137,135,122,105,100,79,108,114,78,95,115,121,138,170,103,114,121,125,126,121,123,95,102,128,120,118,105,130,116,142,113,124,136,117,126,98,117,124,137,112,108,116
127,134,127,122,127,108,126,123,132,131,147,142,119,131,127,128,114,105,133,84,96,112,104,105,122,130,119,63,109,125,124,121,129,112,121,126,108,119,140,129,120,125,125,118,107,110,94,113,124,130,107,102,137,135,131,129,120,115,119,124,137,103,101,119,122,137,132,154,108,133,108,124,114,126,138,61,98,117,124,123,128,116,118,114,96,133,134,117,114,141,121,146,118,106,101,118,124,124,117,125,112,129,135,128,126,123,123,85,113,131,147,132,112,113,120,128,120,112,121,115,117,122,116,119,144,114,107,110
129,128,121,117,105,128,135,127,121,126,120,141,104,121,121,122,110,125,125,126,127,110,108,113,115,116,106,67,97,108,103,111,121,127,129,154,111,124,125,124,119,114,102,83,114,126,128,123,120,123,127,130,123,123,119,122,125,121,119,123,137,124,124,125,133,129,121,123,113,119,124,128,115,103,119,145,106,127,120,112,126,117,123,126,107,115,107,115,120,126,129,111,109,125,129,126,128,131,125,121,132,122,119,118,121,122,113,129,111,128,147,127,115,117,132,160,115,121,107,110,123,128,109,82,141,115,97,116
114,94,111,130,115,130,147,123,119,142,146,218,131,124,131,120,125,100,104,82,142,126,131,125,111,117,124,119,124,112,124,119,125,127,120,120,94,119,114,121,123,123,101,106,103,122,118,119,121,129,131,128,116,120,124,120,124,112,94,108,114,126,123,123,119,132,137,172,84,124,132,125,125,121,85,46,100,119,110,112,117,124,131,150,122,120,124,120,123,123,107,55,138,121,133,123,120,132,120,127,144,128,118,117,127,111,120,118,126,109,116,122,121,127,120,117,107,125,135,128,124,136,129,127,148,121,129,117
116,96,113,119,115,121,116,115,123,121,117,119,118,127,131,126,124,131,119,147,131,125,133,123,126,126,129,193,115,125,128,118,113,116,129,114,115,131,135,125,119,123,127,122,99,107,91,111,120,128,129,141,131,128,131,120,114,102,107,111,124,123,129,122,124,128,122,124,121,119,120,122,118,132,124,137,118,123,125,121,122,127,122,110,97,117,115,117,118,128,123,130,123,116,124,120,124,121,130,140,113,125,120,122,123,116,121,124,101,116,122,123,118,122,117,92,142,112,109,114,123,107,111,141,126,145,151,129
119,127,132,165,122,113,102,115,122,129,125,118,118,122,121,117,119,135,111,86,135,125,138,123,130,137,126,142,148,124,108,117,113,110,125,100,109,113,119,114,122,118,127,125,120,126,133,125,140,137,124,131,138,122,132,127,105,89,109,73,137,117,114,113,124,143,122,126,107,112,117,118,116,162,128,124,94,135,135,123,113,100,107,108,129,103,92,112,125,129,127,131,137,129,142,117,119,143,122,145,93,105,89,117,114,109,106,151,125,126,119,109,124,130,161,184,127,122,105,121,122,122,121,137,150,110,158,134
110,115,110,107,114,92,48,88,120,125,129,139,113,131,142,126,129,117,108,102,116,123,138,126,121,133,139,189,125,116,106,113,118,111,110,131,124,115,125,129,119,104,121,109,125,117,135,113,118,121,125,126,116,123,118,117,119,125,121,149,114,119,119,121,122,127,126,108,106,127,142,127,118,126,117,118,128,113,102,112,129,125,127,136,121,121,130,126,124,128,116,84,124,121,146,130,125,144,129,148,111,100,55,88,108,126,123,109,131,132,139,126,129,118,116,111,124,118,116,123,119,128,120,109,142,116,120,115
113,128,119,134,100,121,114,117,119,111,130,170,104,131,132,123,123,121,124,84,119,130,149,128,111,112,127,140,100,118,92,108,124,126,119,125,124,122,133,122,129,134,136,137,120,124,130,125,113,121,90,37,128,128,128,117,126,131,121,146,165,111,101,120,134,133,128,130,144,131,130,121,124,112,132,153,146,123,126,126,112,122,122,81,129,127,125,122,128,111,120,122,127,120,122,117,129,124,123,141,133,124,130,125,114,130,135,160,134,121,123,123,118,111,98,91,141,128,137,122,122,127,143,197,118,116,132,135
125,146,116,112,119,126,107,105,117,113,112,116,151,124,133,130,117,124,114,91,121,111,98,111,120,121,124,140,119,112,136,124,117,114,115,97,88,109,107,113,121,129,125,133,101,122,126,122,124,122,119,135,106,135,133,123,125,132,129,159,109,113,110,119,110,122,125,118,92,128,132,124,120,99,103,109,95,114,106,117,117,128,139,145,105,127,127,122,127,126,124,123,116,120,121,118,122,124,122,121,106,124,125,126,119,129,131,130,114,112,131,121,134,109,110,144,146,122,119,120,120,127,125,113,128,128,130,122
123,134,133,130,125,108,110,120,124,133,123,118,125,124,145,131,124,122,118,110,115,116,132,119,121,134,127,132,130,126,146,134,125,118,120,134,90,112,100,106,123,118,126,124,108,125,122,115,122,118,107,112,118,129,132,123,120,109,118,132,144,113,113,123,116,135,130,141,146,118,118,123,115,123,113,115,129,124,123,115,124,134,139,179,134,130,126,126,118,105,110,101,119,107,108,122,111,128,122,139,130,116,112,112,127,142,132,140,83,127,135,122,115,71,130,110,116,114,137,133,128,126,119,118,158,108,82,101
127,117,124,136,138,130,130,129,119,125,121,92,96,124,130,129,125,114,109,124,117,120,118,118,125,153,133,133,108,123,123,118,122,126,123,122,115,115,119,120,124,117,120,104,118,112,135,124,123,125,122,152,129,129,127,123,122,108,133,144,122,127,132,120,118,120,116,97,128,121,117,120,113,118,118,106,134,121,134,123,123,125,111,97,146,119,115,112,128,152,129,107,153,119,137,138,117,91,115,139,112,108,115,112,116,128,117,117,107,124,115,117,118,122,125,127,130,125,123,122,128,134,128,128,130,115,121,122
113,116,118,88,92,112,106,115,126,128,133,146,95,120,160,133,112,114,144,174,109,114,91,105,117,123,112,74,114,116,154,128,135,132,124,136,103,128,131,125,105,98,110,108,100,126,132,120,121,132,111,107,129,119,121,121,118,121,122,110,151,114,117,118,127,118,122,130,124,120,118,120,125,120,123,125,112,128,125,125,112,106,113,123,109,121,130,129,116,115,136,112,112,120,112,111,126,136,114,119,99,120,132,125,120,142,128,130,103,126,135,125,109,117,110,123,126,114,110,111,128,128,141,122,141,116,98,117
113,124,120,155,105,125,128,122,121,115,121,122,137,123,126,123,119,119,122,133,179,133,135,125,124,123,124,73,143,108,107,114,121,107,125,136,112,135,128,123,120,122,119,115,78,126,110,121,119,124,122,128,121,116,113,116,123,114,119,124,152,126,127,123,113,128,130,140,128,123,118,124,124,108,111,95,92,126,127,123,122,125,125,119,122,128,132,121,119,142,118,121,180,107,113,126,118,127,117,118,129,125,128,113,113,116,126,136,120,132,142,127,119,119,116,114,167,115,119,114,130,130,114,100,209,121,129,127
122,127,118,93,161,126,126,123,113,116,119,134,240,123,123,116,121,116,110,71,240,112,108,123,123,114,125,151,242,111,115,113,128,128,121,126,240,116,143,128,125,130,120,123,198,123,124,121,115,111,117,129,139,112,109,118,118,121,122,122,126,115,114,113,120,130,126,140,122,123,133,124,119,130,120,113,122,125,127,125,119,112,119,120,113,122,121,120,118,120,119,120,2,126,123,120,120,125,130,151,2,125,131,124,116,112,119,108,8,107,70,102,121,134,118,127,48,130,135,123,116,112,128,94,78,122,127,123
111,119,105,118,76,117,105,112,120,128,126,128,102,126,130,123,123,134,123,126,122,122,124,123,119,112,118,118,98,131,137,123,126,128,123,132,99,108,110,124,118,118,118,115,95,115,99,110,114,99,111,128,97,128,133,122,122,114,126,140,116,119,123,124,121,128,124,113,103,121,120,123,126,118,118,130,110,118,133,123,120,125,129,174,102,98,124,126,117,122,122,137,131,106,106,111,126,120,131,144,111,130,138,129,121,123,120,131,105,124,124,121,115,126,140,160,141,119,120,119,121,124,139,119,106,121,120,118
123,126,118,102,107,118,122,121,112,111,120,138,93,123,119,114,134,127,128,141,124,117,122,127,116,119,110,48,131,127,131,123,121,130,127,127,132,119,112,120,127,132,125,126,122,133,141,128,124,119,120,126,125,101,77,103,123,122,122,132,119,126,133,126,121,125,118,114,112,117,142,124,117,117,122,124,109,99,70,97,117,131,116,128,104,126,129,126,126,116,125,120,115,129,132,130,107,102,124,130,131,120,138,126,126,129,118,137,119,120,113,115,113,117,114,105,91,124,129,122,120,127,125,130,89,123,126,119
120,133,128,131,114,119,113,118,121,127,125,136,123,129,121,120,123,115,126,173,122,120,126,124,119,114,130,136,151,129,127,122,122,120,121,122,114,119,125,122,122,125,124,128,124,125,126,124,125,123,127,135,116,125,140,126,117,123,125,118,122,119,95,107,126,119,124,139,119,113,124,123,113,118,118,79,124,127,139,134,120,129,121,124,121,122,99,97,130,120,114,97,126,131,136,131,122,126,113,103,112,124,124,122,118,152,137,168,127,110,119,119,121,124,126,127,129,118,109,118,126,122,125,137,129,131,135,126
119,111,92,49,131,102,88,114,116,122,120,139,125,122,131,123,110,114,113,134,123,115,108,108,119,120,119,171,123,116,116,119,120,130,113,121,112,120,122,118,119,126,125,103,119,115,113,119,118,117,114,127,123,129,123,119,119,121,111,151,119,111,117,122,129,135,127,127,122,128,103,112,118,101,113,104,120,84,69,115,114,125,124,131,123,130,132,117,127,125,118,140,115,128,131,118,120,125,128,153,107,124,129,127,136,107,127,165,132,118,128,121,119,121,112,110,132,116,120,122,117,124,137,162,124,126,128,122
110,108,86,47,117,117,109,116,121,134,118,123,114,124,125,124,118,119,120,119,120,118,132,125,115,107,121,169,120,131,124,118,121,123,117,105,124,106,148,131,121,107,104,167,117,117,125,120,122,121,135,183,131,140,137,124,114,137,129,132,119,128,140,124,106,92,93,0,118,120,95,110,120,126,114,126,111,97,128,123,115,136,129,127,123,136,138,124,133,94,118,131,109,125,133,127,118,132,104,57,115,120,110,115,116,117,144,156,118,123,127,118,120,138,140,147,120,118,128,125,120,112,118,101,106,129,129,120
127,139,126,105,122,117,109,117,122,112,104,138,118,124,124,121,130,125,113,121,138,124,125,121,122,134,114,167,143,111,123,125,119,118,134,82,129,108,118,126,120,125,124,131,118,119,116,118,123,120,116,113,119,144,131,121,115,116,109,52,117,111,95,118,124,109,115,118,115,109,128,119,117,124,113,133,116,139,116,123,115,114,114,119,116,118,83,96,157,135,145,175,124,128,134,133,117,123,100,66,126,122,128,124,119,119,122,112,123,125,127,121,112,119,123,115,118,107,118,111,118,123,93,116,113,114,112,119
117,120,141,161,123,127,131,123,118,126,119,124,124,122,125,123,121,109,121,121,122,125,123,119,114,122,115,117,120,112,119,123,138,136,138,157,125,139,133,126,116,127,117,132,112,110,92,108,119,118,123,142,122,120,113,123,125,115,110,93,124,121,141,130,113,149,138,147,125,141,112,103,118,121,126,138,101,101,65,109,120,123,120,143,118,115,130,123,124,126,129,125,124,131,144,126,123,129,128,185,119,115,100,120,123,127,131,118,119,135,137,122,121,127,121,133,126,121,124,124,121,110,122,127,116,120,125,120
128,130,114,89,119,121,119,121,112,105,130,180,121,130,136,123,125,120,129,138,124,122,119,116,115,116,81,157,117,116,114,114,128,134,137,58,125,127,141,129,120,115,100,85,113,110,94,109,120,109,121,145,126,134,129,122,138,128,115,83,122,112,135,133,121,112,130,122,116,107,93,115,121,118,119,105,120,132,132,122,123,132,129,119,124,127,156,135,113,124,111,95,119,88,61,91,121,120,125,131,119,124,134,126,122,120,122,122,114,131,141,129,122,126,123,121,121,126,138,125,121,119,130,196,119,108,106,118
116,105,112,147,117,133,136,122,121,139,136,71,124,127,129,123,122,109,121,188,128,124,128,121,121,119,119,101,138,119,121,122,119,106,106,99,120,115,104,116,131,130,100,95,114,124,128,123,110,126,137,141,116,127,131,124,117,114,113,112,115,130,137,121,126,120,120,117,119,113,107,123,120,125,121,126,124,132,137,126,128,130,142,189,121,119,121,126,126,118,129,162,119,116,103,117,119,135,148,174,124,134,137,127,120,126,120,128,126,126,135,116,122,125,118,81,124,126,133,127,122,123,121,148,118,111,126,121
120,123,121,113,123,124,114,121,123,127,119,132,111,109,130,125,118,121,126,124,126,124,134,123,125,106,97,62,111,136,135,119,115,123,116,115,111,110,99,117,119,126,111,149,124,119,126,120,123,127,128,138,128,119,113,120,114,109,121,144,123,129,134,124,119,117,135,144,116,109,101,112,115,109,102,57,124,116,106,116,123,127,128,166,117,118,124,126,120,132,133,129,124,125,123,117,119,123,113,132,115,104,109,123,121,130,139,135,126,132,150,135,120,123,117,128,117,96,95,100,117,114,122,113,122,136,141,127
128,135,114,111,123,121,122,126,130,124,135,162,125,111,128,127,110,117,114,153,109,106,73,94,122,134,161,119,126,130,138,127,132,129,110,104,129,128,134,126,111,128,127,150,118,119,122,120,113,121,121,115,121,124,119,118,117,109,118,109,119,107,127,113,117,122,107,128,123,124,123,120,121,120,115,124,121,123,129,123,121,133,123,125,118,121,125,119,123,115,121,130,120,116,143,129,115,107,118,115,113,98,58,100,123,131,118,124,118,127,139,128,120,125,128,139,125,118,105,113,125,121,134,102,125,145,148,129
113,118,125,165,131,105,86,116,129,126,135,153,123,127,145,130,123,116,105,106,112,117,111,116,113,121,126,107,112,119,120,121,134,127,121,125,108,116,120,118,115,101,114,107,121,119,112,120,120,116,123,159,118,117,111,119,133,117,124,130,118,139,150,128,116,130,126,180,117,102,61,106,123,128,161,158,125,135,136,127,117,131,113,115,120,117,119,119,118,118,121,105,121,131,138,122,124,135,119,129,118,132,111,113,114,109,106,83,119,107,101,113,117,122,119,139,123,141,147,128,111,112,118,118,122,96,78,105
122,132,140,160,116,128,137,127,122,124,108,0,130,112,96,120,118,115,110,107,120,121,122,122,125,130,122,137,127,123,125,119,121,118,122,76,122,121,122,121,124,146,138,172,128,118,124,124,121,94,95,55,123,123,126,122,119,123,125,151,120,130,138,123,123,140,142,164,134,118,113,117,119,114,119,74,119,114,115,121,117,113,114,133,126,128,132,122,124,131,122,126,124,131,155,129,120,109,116,176,121,102,62,102,131,130,132,59,127,126,145,131,125,121,127,169,110,126,143,125,123,124,136,31,128,127,129,126
115,125,132,158,110,100,79,107,118,128,92,149,133,146,146,129,126,106,122,130,127,111,118,119,115,101,114,171,114,121,124,121,130,136,126,107,132,128,133,128,104,98,104,121,117,94,106,111,120,121,116,112,118,122,119,116,128,113,124,139,126,124,126,123,121,135,119,73,118,120,141,126,114,131,123,151,118,116,131,120,115,117,118,33,124,95,88,104,123,127,166,222,118,129,141,122,121,138,116,122,116,126,139,124,123,136,130,119,121,118,112,124,118,95,119,120,125,138,129,119,109,109,118,116,112,85,33,95
124,126,129,109,126,140,151,129,117,127,114,157,112,133,139,126,124,103,142,242,130,115,105,122,120,109,127,157,114,120,109,117,117,132,122,133,122,124,136,125,123,113,123,127,125,120,109,113,128,115,127,121,120,121,125,124,121,127,135,157,117,119,129,124,127,123,121,120,130,128,121,120,112,127,115,133,115,128,122,119,120,131,128,78,126,97,133,125,107,97,107,116,114,132,128,116,124,148,139,179,127,118,127,121,121,125,115,108,115,116,121,119,114,107,113,113,117,127,113,114,123,133,126,124,131,126,122,127
125,127,117,65,113,123,134,125,120,126,138,146,129,132,131,123,112,110,79,60,109,126,130,115,127,115,131,143,116,114,118,120,119,138,122,135,133,121,123,126,114,129,109,163,107,112,126,109,121,114,153,162,127,120,121,122,117,142,120,111,116,123,125,121,121,120,120,95,112,126,128,121,121,123,116,124,115,116,115,119,121,122,119,127,124,119,125,123,123,126,116,95,121,126,117,117,119,123,124,129,130,123,153,128,115,117,106,102,113,102,110,114,126,124,129,138,122,132,145,128,121,138,114,114,125,129,140,129
111,81,109,129,114,115,113,114,136,152,133,131,119,126,122,127,107,98,117,130,119,119,121,111,116,125,128,150,138,120,117,118,128,138,132,113,120,120,119,122,121,123,117,120,117,121,120,119,116,94,118,131,125,124,123,120,107,122,116,105,118,139,134,123,134,133,128,148,134,136,133,128,119,127,127,126,113,103,69,110,120,123,124,138,121,121,125,121,130,137,116,62,122,140,166,136,114,106,119,124,116,95,51,101,125,125,119,143,124,116,110,118,125,92,100,88,117,120,139,128,122,133,148,159,125,125,114,116
131,132,120,126,124,122,118,121,112,82,107,107,120,126,130,125,130,124,127,142,125,115,119,118,116,105,122,121,119,116,97,110,121,116,122,132,121,136,156,128,125,123,122,133,125,109,105,111,118,133,119,95,121,128,138,125,125,132,135,147,126,126,126,123,119,125,119,121,120,128,135,122,124,91,132,159,118,129,118,121,121,138,117,121,115,112,83,110,126,134,128,118,125,134,147,131,122,114,124,118,118,108,111,120,120,125,122,130,122,125,125,118,120,113,109,110,122,118,125,124,125,137,120,91,121,127,144,129
128,114,107,114,114,153,124,122,121,135,143,179,140,99,92,121,130,115,114,5,122,132,143,125,127,108,126,133,126,129,137,127,130,136,120,128,117,129,126,124,126,123,127,128,129,121,128,127,117,128,115,87,118,110,100,115,122,107,108,97,114,122,127,122,118,130,124,116,123,129,130,125,124,124,122,123,121,119,117,121,120,128,131,161,120,119,101,117,121,121,113,58,127,154,150,128,120,120,121,133,119,98,59,109,120,116,117,122,121,134,147,132,120,121,125,90,116,84,94,104,118,127,123,112,121,141,142,127
120,118,117,113,123,118,130,126,119,119,126,158,122,123,114,116,123,128,123,121,120,122,125,120,119,125,128,123,133,119,125,122,118,132,117,116,119,124,121,119,127,115,123,121,124,129,130,124,119,121,130,145,127,109,99,120,107,100,124,93,125,125,118,114,126,117,125,131,117,126,134,129,114,126,115,97,125,118,124,119,120,114,108,96,113,120,118,118,128,131,124,123,125,135,130,128,114,105,122,128,117,116,99,117,118,119,119,137,120,128,120,121,123,128,140,165,115,110,94,116,122,131,118,121,127,135,137,125
122,119,125,132,120,119,118,123,122,117,121,81,122,125,121,116,125,142,125,126,120,127,133,126,121,114,120,125,117,124,127,119,126,111,119,113,122,116,108,120,112,109,113,123,114,118,116,113,133,136,126,92,125,138,135,129,115,122,115,106,123,116,111,116,128,125,129,173,121,122,124,125,118,123,107,99,113,112,94,113,121,130,122,99,123,138,150,130,124,96,110,140,121,95,90,108,120,125,118,121,124,128,132,125,122,127,123,119,122,122,131,126,124,132,132,136,124,121,144,128,120,130,126,172,115,111,131,125
123,80,112,127,122,129,145,122,123,125,133,141,118,129,137,129,128,148,116,102,117,122,122,122,113,99,127,134,119,124,126,119,126,127,129,120,117,123,124,125,116,104,105,117,122,116,129,119,124,126,124,102,127,116,137,130,120,115,113,75,113,120,104,109,119,115,103,90,122,116,126,120,116,87,129,137,123,126,135,123,113,111,108,129,120,100,115,114,131,148,139,115,126,117,123,126,130,123,101,34,119,126,167,128,134,124,122,118,126,118,104,119,119,118,122,145,119,126,132,125,122,119,119,132,125,126,135,125
125,152,132,123,115,119,135,123,120,120,122,125,120,115,107,118,124,131,119,116,112,126,125,122,119,117,119,138,119,124,128,124,122,123,121,115,117,118,121,118,123,125,117,129,122,125,134,124,115,125,93,89,121,117,110,121,125,107,115,46,121,115,135,122,117,121,117,91,118,121,108,115,125,128,124,134,121,125,146,128,120,103,123,129,121,137,108,115,126,128,123,138,119,101,107,118,130,132,119,124,122,131,138,125,112,110,121,152,121,138,137,119,122,128,128,108,131,111,111,121,129,142,117,90,116,134,123,120
129,95,106,142,128,135,135,124,117,139,128,112,116,97,67,109,119,121,118,94,122,127,135,121,125,132,121,127,123,119,138,126,117,116,119,118,123,116,107,114,120,126,119,128,123,128,134,124,120,129,117,121,118,120,128,119,120,119,117,119,120,121,114,117,120,97,115,116,126,132,140,126,119,122,119,110,120,104,70,106,122,120,125,129,119,124,130,124,125,134,116,105,113,117,126,123,122,113,125,128,125,123,112,121,129,112,103,96,115,127,132,123,120,132,121,143,118,119,116,115,120,129,123,64,127,120,147,119
120,128,119,127,119,117,92,114,124,128,123,126,123,130,132,128,122,126,122,124,125,117,111,120,129,118,132,141,123,127,145,129,118,109,114,117,116,130,148,125,120,121,127,78,120,111,85,114,120,109,122,127,121,124,133,122,126,133,123,121,121,127,128,123,125,142,123,74,124,123,128,123,117,109,121,138,127,118,112,118,118,132,120,138,125,121,118,117,136,106,142,111,130,134,132,125,118,110,118,119,114,128,132,125,125,132,123,120,118,120,103,114,120,111,113,113,122,118,122,121,120,113,123,114,122,118,143,127
102,109,107,116,111,98,71,94,124,132,126,128,119,128,132,125,123,133,116,112,122,129,147,129,121,104,129,166,117,118,115,117,120,107,118,132,120,123,147,130,119,116,121,120,112,105,78,102,120,118,118,116,119,117,120,121,118,125,125,152,121,118,111,117,124,124,132,136,131,126,127,120,121,126,133,146,118,123,117,123,119,120,116,121,117,123,113,116,117,127,114,84,125,122,122,123,133,123,122,117,126,122,131,124,117,116,116,142,122,121,121,122,124,133,120,112,121,132,132,125,118,137,124,147,123,115,109,113
123,82,120,127,121,124,125,122,119,124,124,114,121,141,137,126,123,126,117,119,125,107,115,124,113,117,127,147,119,107,78,107,123,119,113,93,120,135,144,128,122,124,130,133,118,123,121,124,130,122,108,147,130,113,130,125,124,129,127,111,115,126,130,125,119,105,125,128,126,129,136,124,121,122,122,119,126,110,112,122,118,129,106,96,113,111,102,110,120,119,118,127,127,123,121,122,125,132,127,121,125,119,123,123,117,119,128,102,122,119,127,124,117,122,107,105,113,112,105,110,126,129,123,120,130,138,155,127
124,127,124,133,113,110,94,112,121,121,127,183,133,122,144,128,128,140,131,154,120,130,132,121,113,110,120,116,116,103,88,109,113,122,111,134,115,128,144,124,123,108,131,111,124,101,115,124,110,106,108,109,112,115,106,107,119,133,111,130,115,119,147,124,125,128,130,102,129,121,101,117,125,132,121,76,110,123,124,122,117,112,114,138,119,116,138,121,125,124,124,140,119,123,123,123,121,131,117,79,122,124,106,121,125,129,129,135,122,137,143,125,126,112,110,123,122,104,95,116,124,122,119,101,124,123,125,121
116,127,121,114,114,119,137,124,113,119,111,111,119,117,111,113,122,108,138,163,122,113,123,122,112,120,84,92,123,124,126,120,119,126,127,128,119,120,118,117,124,123,126,132,124,115,130,125,117,103,123,144,123,122,122,119,124,138,125,104,125,131,128,125,111,100,115,110,120,117,109,114,122,124,124,132,115,117,102,120,124,130,115,61,124,117,127,122,129,113,116,132,109,121,134,124,109,89,120,125,125,118,93,107,130,134,115,106,120,136,148,132,121,110,115,101,127,112,106,118,128,144,138,154,126,120,128,125
122,115,118,128,122,127,136,124,117,122,124,101,120,103,115,114,117,114,118,109,118,115,106,112,118,135,124,125,123,124,128,125,122,104,119,125,124,122,122,121,120,138,124,118,121,130,125,123,124,127,121,118,124,124,131,122,118,125,123,104,119,118,116,120,118,116,121,116,123,145,150,123,114,116,116,114,111,81,28,93,123,133,125,133,123,137,141,128,120,118,120,122,124,134,123,123,122,125,120,142,124,118,125,121,130,116,131,130,122,136,151,134,118,116,114,64,114,108,74,102,110,84,119,140,125,122,115,115
121,130,123,120,121,127,136,125,120,125,118,117,120,122,124,119,119,119,112,112,115,119,120,118,122,139,133,157,126,123,123,121,126,123,121,120,127,126,123,120,121,121,123,122,125,127,118,119,125,131,117,138,118,121,129,125,117,114,123,123,117,102,95,112,123,128,126,128,123,136,153,130,122,125,120,119,115,115,114,121,116,121,121,127,122,119,124,118,118,119,118,116,122,122,122,119,121,123,122,136,127,130,139,125,119,124,118,122,119,119,118,120,125,124,129,165,126,125,127,121,119,117,126,150,122,128,125,121
117,116,119,94,113,116,104,119,121,122,126,125,121,114,125,124,119,123,120,124,120,122,122,119,125,120,116,135,121,120,125,122,117,133,135,133,120,110,123,119,125,115,123,154,119,115,111,111,125,129,126,133,124,130,130,123,124,124,125,87,123,124,142,127,119,119,120,121,119,109,102,114,120,123,119,133,120,123,129,118,119,110,117,113,124,118,121,126,118,117,115,129,118,117,83,104,122,124,122,124,115,124,139,128,123,132,122,123,123,127,130,125,117,105,118,115,120,118,112,115,121,126,122,115,121,123,132,123
118,119,123,149,119,116,114,118,126,124,124,117,124,124,131,123,121,104,118,118,119,118,122,120,122,121,124,122,125,123,130,125,117,125,119,130,128,126,127,120,129,119,119,128,113,115,123,123,111,112,106,107,110,123,141,120,113,107,126,165,118,112,77,105,118,129,128,123,121,124,137,123,122,125,116,103,121,122,129,124,119,118,119,126,115,119,111,122,119,112,122,118,123,127,136,124,121,123,121,125,123,124,122,119,122,128,124,129,119,125,131,125,124,120,125,130,130,119,111,118,121,121,116,123,120,122,128,121
124,123,122,125,121,120,117,122,131,116,122,125,122,128,130,126,119,147,120,141,114,123,115,122,120,106,130,149,125,126,109,124,119,125,121,123,120,116,112,114,124,128,123,126,127,127,134,127,121,118,118,122,122,125,128,123,121,131,124,141,123,121,116,120,127,133,132,149,112,122,134,125,119,107,110,88,117,97,118,113,122,124,125,130,116,120,126,123,123,126,121,129,125,134,147,129,124,120,119,102,120,114,94,116,120,119,122,128,130,125,125,119,119,115,120,127,125,127,120,118,124,142,128,145,124,133,130,131
117,115,120,118,117,102,103,110,123,116,119,115,124,127,132,122,120,122,116,112,121,129,138,125,121,127,127,127,122,114,108,122,129,124,119,121,137,123,123,126,119,116,118,127,123,126,129,122,121,144,126,137,119,114,109,120,118,122,121,120,122,121,133,123,117,125,119,119,118,125,125,121,123,123,125,121,123,139,130,121,114,126,125,121,117,91,75,105,127,122,111,102,127,133,137,128,124,130,136,147,123,129,134,125,112,114,112,112,121,114,109,115,123,127,123,126,122,129,131,122,122,125,127,134,117,105,113,121
112,110,113,119,117,116,105,112,122,143,130,125,123,133,125,128,129,121,117,114,124,122,112,119,120,122,121,122,120,125,134,126,123,127,111,124,119,112,122,121,119,121,126,120,116,127,127,119,116,117,118,118,120,114,113,115,119,127,131,144,120,123,126,122,112,112,98,72,121,123,134,120,119,130,125,137,118,112,110,117,122,101,121,121,121,128,132,120,116,108,121,118,121,127,135,125,117,124,115,95,114,122,111,112,119,116,120,127,125,120,108,121,121,117,103,81,126,120,127,122,122,133,133,158,124,126,118,117
122,128,118,122,126,110,119,122,122,118,123,122,118,112,108,113,119,111,123,123,121,131,130,124,122,124,119,116,120,123,123,121,120,123,119,120,121,116,120,118,123,138,130,125,117,122,122,125,117,92,106,94,124,118,117,118,122,109,118,115,115,119,121,121,116,129,124,116,122,122,123,120,123,126,122,110,119,123,127,122,119,109,117,126,120,121,139,123,119,131,116,123,124,116,101,116,112,117,116,120,119,128,126,113,123,126,125,122,116,120,131,124,118,137,119,121,124,121,127,121,115,81,115,151,119,126,144,126
117,131,121,115,115,108,78,109,122,120,131,130,122,130,146,126,129,114,114,135,121,127,107,117,115,125,128,125,123,127,129,122,125,125,129,126,122,121,117,124,120,121,108,122,122,122,120,121,115,110,135,135,120,123,122,119,119,123,122,123,120,126,124,121,115,140,126,125,124,115,121,124,102,111,125,123,98,114,112,106,121,124,117,107,125,121,110,119,117,112,116,124,117,110,94,112,118,118,119,121,121,135,142,126,120,129,123,133,117,121,132,122,116,122,119,105,119,124,120,120,112,126,124,133,132,119,110,114
122,116,122,133,120,123,122,122,118,121,117,137,115,111,95,111,117,112,123,129,131,126,128,121,122,126,123,129,119,122,125,122,119,124,122,125,121,122,123,122,118,118,120,123,118,119,121,119,118,123,122,121,121,122,120,120,126,120,118,119,120,124,127,123,113,108,123,139,124,117,109,120,119,123,122,120,121,124,125,120,127,124,121,119,124,122,123,124,121,123,123,122,122,121,122,120,147,125,121,122,122,121,122,125,115,122,121,118,120,121,121,120,124,121,121,120,119,125,124,121,120,122,121,116,123,119,117,120
120,122,123,135,125,123,125,121,120,122,120,120,119,122,122,121,122,121,120,120,122,120,121,121,120,122,122,119,114,122,121,121,121,122,121,120,124,124,126,121,120,122,122,127,125,116,110,119,135,123,121,120,115,122,126,124,101,118,121,121,120,121,122,116,108,121,119,121,118,119,122,121,112,122,124,118,115,120,121,123,108,120,121,119,129,123,122,117,130,122,121,124,122,119,119,121,133,121,120,121,117,120,121,122,95,121,120,127,131,120,121,120,126,124,127,130,134,120,123,124,88,118,108,121,111,122,121,113
110,119,130,128,121,121,121,119,124,121,118,120,113,120,121,122,127,121,119,125,115,122,123,123,122,122,121,117,122,121,121,121,122,122,121,122,119,120,121,121,131,121,120,120,116,120,121,121,97,121,121,120,130,120,119,118,109,123,122,132,123,117,121,122,119,121,118,120,120,119,121,120,123,122,127,126,121,119,121,121,120,121,118,122,105,120,120,120,120,120,120,123,131,119,120,120,125,121,120,122,116,123,122,119,118,121,120,121,120,124,121,121,120,123,125,126,119,113,120,121,123,122,119,130,133,123,122,120
118,121,120,111,121,126,123,121,125,121,120,122,123,124,121,121,120,122,123,120,124,118,120,120,121,122,117,122,112,116,120,120,114,122,121,127,149,123,121,121,95,120,119,119,147,121,121,118,129,125,120,123,140,124,124,123,97,120,116,120,143,121,123,119,115,120,126,123,241,122,120,119,122,122,109,118,169,113,118,119,110,122,126,120,37,121,120,120,133,121,121,126,115,128,123,120,121,120,110,117,96,122,122,121,122,123,147,125,92,119,120,120,121,122,120,120,96,121,122,121,121,122,117,130,104,133,124,121
119,121,120,124,87,116,119,119,120,121,120,118,102,114,119,121,120,121,119,118,91,102,120,119,124,125,126,123,122,148,130,126,119,120,119,107,97,112,116,118,121,122,122,125,137,137,126,121,120,122,120,119,103,90,117,120,120,121,123,125,123,130,122,120,121,120,119,119,126,130,123,120,116,122,119,127,117,121,121,120,121,121,117,121,115,117,119,119,121,122,116,121,120,121,121,120,121,122,121,118,122,122,121,120,119,120,121,121,109,124,122,120,122,123,121,122,120,126,121,120,121,122,122,123,115,118,122,121
120,122,120,121,120,125,120,120,121,121,121,124,112,115,120,120,119,121,122,122,139,121,121,120,121,122,121,118,117,122,120,120,119,121,121,122,116,120,120,118,122,122,121,122,122,121,121,121,121,122,120,121,119,120,122,121,121,121,121,123,116,118,120,120,121,122,121,128,131,128,123,121,120,121,122,129,110,114,121,120,119,120,121,123,131,129,121,120,120,122,121,123,124,120,121,120,120,121,121,123,117,122,121,119,121,122,120,120,124,133,122,120,126,121,122,124,117,116,123,121,124,122,118,121,127,125,121,121
121,121,122,121,87,120,122,119,121,121,121,121,120,116,121,120,121,122,121,122,126,125,122,122,123,121,120,122,127,122,119,119,121,121,120,121,116,120,123,123,121,121,121,118,121,119,121,117,116,120,121,124,120,122,122,120,120,122,121,124,130,122,121,121,122,121,116,127,124,120,123,122,120,122,124,124,121,122,121,120,120,121,117,119,113,124,121,120,120,121,121,121,131,121,123,121,120,122,120,121,129,118,122,121,121,121,121,122,101,122,119,120,120,121,119,121,114,128,124,120,121,122,125,122,86,126,120,121
121,124,121,124,111,122,122,121,121,123,146,126,166,122,120,120,120,120,120,120,139,125,124,121,120,122,122,122,123,129,121,121,122,122,120,121,114,121,122,121,123,120,113,120,118,118,119,118,109,127,124,116,112,122,121,120,123,121,120,115,103,118,122,122,121,121,120,117,116,120,121,120,121,122,121,121,115,120,121,120,121,121,121,122,134,125,121,122,121,122,118,119,115,119,121,121,121,121,119,121,130,126,122,121,120,121,122,127,122,118,122,123,120,121,121,121,112,120,119,115,121,122,120,121,133,123,122,122
120,122,122,122,113,117,120,121,120,121,120,117,118,119,119,121,121,122,121,122,124,119,122,120,121,122,121,122,128,125,121,120,120,120,120,121,117,120,122,121,121,122,123,120,121,120,121,121,120,121,121,123,121,121,121,120,120,122,121,122,122,111,118,119,121,121,120,121,117,133,124,122,121,122,121,118,118,117,121,120,119,122,123,120,85,125,121,121,119,122,122,124,125,122,122,120,120,121,120,118,121,115,120,121,121,122,123,122,122,122,120,119,121,121,120,120,128,122,122,121,120,121,122,123,124,123,122,119
119,121,119,121,121,117,119,119,121,118,117,115,120,121,122,121,119,128,125,124,124,124,122,120,121,121,120,119,123,122,122,119,122,121,120,121,126,125,122,122,119,121,120,120,119,122,121,120,121,121,120,121,119,116,121,121,117,121,121,122,118,120,120,119,122,122,121,121,124,123,122,121,120,120,120,122,122,121,121,119,121,121,120,121,121,122,121,120,121,122,121,122,119,121,121,121,121,122,121,121,122,123,121,121,121,122,120,120,129,120,122,121,121,122,121,123,121,119,120,119,121,121,120,120,118,120,121,120
120,122,121,123,121,118,120,119,121,121,120,121,121,121,121,121,121,122,121,122,118,121,122,121,121,122,121,121,115,124,122,120,120,121,120,121,136,121,123,120,121,121,120,119,115,121,121,121,120,122,121,120,109,119,121,120,121,121,121,122,124,120,121,120,120,121,121,123,123,123,121,120,121,121,122,127,124,120,121,120,121,122,120,121,123,125,121,120,121,121,121,125,119,120,124,121,121,121,121,122,119,120,121,120,120,121,121,122,124,122,122,121,120,122,121,122,120,121,121,117,120,121,121,122,126,122,121,120
120,121,121,123,119,120,120,120,120,121,121,122,122,121,121,121,120,121,121,120,122,123,122,119,120,122,122,124,120,119,120,120,121,121,120,123,92,121,122,121,122,122,122,123,124,123,122,120,121,122,121,122,130,120,121,121,121,122,121,123,126,121,121,121,120,121,120,121,125,119,121,121,121,122,122,120,127,122,121,121,120,121,120,125,111,116,121,121,120,121,121,122,126,124,121,120,120,121,120,121,114,126,123,120,120,121,120,121,103,116,120,119,121,122,122,126,111,115,120,120,118,121,121,122,123,130,122,120
121,121,121,122,126,121,121,119,120,121,121,122,121,121,120,120,121,122,121,123,122,121,121,120,119,121,120,122,130,121,121,119,121,122,121,120,126,120,120,121,121,122,121,119,120,120,121,121,120,121,121,123,125,124,122,120,120,122,121,122,122,121,120,117,121,122,121,121,119,119,121,123,116,121,121,122,128,120,120,118,121,122,121,123,122,122,121,121,121,122,122,123,120,120,122,121,121,122,121,125,120,120,121,120,120,121,120,119,117,121,122,120,121,122,122,122,124,123,122,121,121,122,121,123,120,122,122,121
121,122,121,122,119,121,121,120,120,122,121,125,137,123,121,119,120,122,121,120,119,122,121,120,120,122,121,124,130,122,121,120,121,122,120,118,121,122,121,120,121,122,120,123,129,121,121,120,121,121,120,121,120,118,120,121,121,122,121,122,122,121,121,121,121,122,122,121,121,121,123,121,120,121,120,121,121,121,121,121,121,122,121,124,126,121,122,121,121,121,121,126,122,121,121,120,121,121,120,121,121,120,121,120,121,122,120,120,117,122,121,121,121,121,120,122,127,122,121,121,120,121,120,122,121,121,122,119
120,122,121,121,121,121,121,121,121,122,122,123,121,120,120,121,120,121,119,120,121,122,122,121,120,121,121,123,126,123,121,121,120,121,121,123,128,121,121,119,120,122,121,118,114,121,121,120,120,121,122,126,131,121,122,121,121,122,119,107,102,120,123,121,120,121,121,124,123,121,121,120,120,121,120,119,119,120,121,121,120,121,121,121,121,125,121,119,123,121,120,122,121,118,121,121,120,121,119,121,119,122,121,120,121,121,121,121,120,122,121,120,121,122,121,122,128,122,123,121,120,121,120,121,120,120,122,121
120,122,121,122,118,120,121,120,121,122,121,120,119,121,122,121,120,122,121,122,121,120,121,120,121,122,121,121,120,121,121,121,121,121,120,122,117,119,121,121,121,122,121,121,119,121,121,121,120,121,121,122,116,122,121,118,120,121,120,124,126,121,122,121,119,121,122,127,121,123,121,119,121,122,121,122,117,122,121,121,120,121,121,122,124,120,120,119,121,122,121,121,121,122,121,121,120,121,121,128,124,120,121,121,121,121,120,120,120,121,122,121,120,122,121,121,120,121,122,121,123,122,121,123,123,122,122,120
120,121,121,122,121,120,121,120,120,121,121,121,120,119,120,120,122,122,121,122,121,122,121,119,121,122,121,122,121,123,122,122,120,122,121,121,106,119,121,122,120,121,121,122,116,119,120,118,120,121,122,123,126,124,120,120,121,122,121,120,120,119,120,121,121,122,121,123,136,125,123,122,121,122,120,122,119,120,121,121,120,122,121,124,121,121,120,120,120,122,123,137,136,120,120,119,121,121,120,120,123,121,121,120,121,121,121,122,123,123,122,122,120,121,121,122,128,122,121,121,121,122,121,120,121,119,121,121
120,122,121,123,121,122,121,121,119,121,121,122,123,122,122,120,120,122,121,122,119,121,120,120,120,122,121,122,120,120,122,121,121,122,121,121,122,121,121,121,120,122,120,121,124,121,121,120,121,120,120,121,120,119,121,121,121,121,120,121,124,122,122,120,120,121,121,122,117,123,121,119,120,121,121,120,120,117,120,119,120,122,121,124,125,120,121,120,120,121,121,123,123,122,122,120,120,121,120,117,120,120,120,120,121,122,121,122,119,122,122,120,120,121,121,122,121,119,120,120,120,121,121,121,124,123,122,121
121,122,121,121,119,121,122,121,121,121,120,121,123,122,121,121,121,121,120,121,121,117,121,121,121,122,121,122,119,120,120,120,121,122,121,122,120,121,120,120,120,122,121,122,123,122,121,121,121,122,122,123,118,121,122,123,118,121,120,121,121,121,122,117,122,121,121,122,119,119,120,120,119,121,121,122,118,121,121,120,124,121,120,121,121,122,122,121,121,122,122,122,115,119,121,120,120,122,121,122,120,123,121,119,121,122,122,124,132,121,121,121,120,122,122,120,124,119,120,120,121,122,120,120,119,122,122,121
121,122,121,122,124,120,120,120,120,121,121,121,129,122,121,120,121,122,121,122,118,118,120,120,120,121,121,122,126,122,121,120,120,121,121,122,125,123,120,120,120,121,121,122,121,121,122,120,121,122,122,118,117,120,121,121,121,122,121,122,121,121,122,121,120,121,120,121,122,121,122,121,121,122,120,121,121,121,121,120,121,121,121,122,122,122,123,120,120,121,121,122,121,119,119,119,121,122,121,122,122,122,121,120,121,121,121,121,120,120,122,121,121,122,121,121,120,119,121,119,121,122,121,123,116,121,120,121
121,122,121,123,117,120,122,121,121,121,121,123,127,121,121,121,121,121,120,120,119,127,122,120,119,121,121,124,121,113,120,119,119,120,120,121,116,124,122,120,121,122,122,127,132,124,122,121,120,122,121,120,120,121,121,121,122,121,121,122,121,120,121,120,119,121,121,122,122,122,122,121,121,121,121,123,126,122,122,120,121,122,122,122,126,121,122,120,120,121,120,121,125,121,121,121,120,120,120,121,122,122,121,121,120,121,121,124,122,121,121,120,120,121,121,120,132,122,122,120,121,121,120,121,120,120,121,121
121,122,121,122,126,124,121,120,120,122,121,121,119,120,121,121,121,122,121,122,119,120,121,119,118,120,120,121,124,122,121,120,120,122,121,118,120,122,122,121,121,122,121,127,126,122,122,123,120,122,120,121,118,120,122,117,121,122,121,121,122,122,120,121,119,121,121,122,121,122,121,121,120,121,121,122,121,121,123,121,121,122,122,122,118,123,121,121,120,121,120,121,120,118,121,120,120,121,121,123,124,124,121,120,119,121,121,121,121,123,122,120,121,121,119,118,121,120,120,120,122,121,122,125,133,121,121,120
120,122,121,120,115,120,121,120,120,121,121,122,118,120,121,120,120,121,121,122,126,124,121,120,120,121,121,120,118,118,122,121,120,121,121,122,118,123,121,119,121,122,121,121,126,119,122,121,121,121,120,121,119,120,122,120,121,122,122,122,120,124,122,120,120,122,122,122,118,119,121,121,121,122,121,121,118,120,121,120,121,122,122,123,125,121,122,121,120,121,121,121,124,124,123,120,121,121,120,119,116,120,122,123,119,121,120,122,125,123,121,116,122,121,121,119,117,118,121,122,121,122,121,122,126,121,121,121
120,121,121,121,121,121,120,120,121,122,121,121,123,122,121,121,121,122,121,123,120,120,121,122,120,121,121,121,127,122,122,119,120,122,121,123,121,121,122,120,121,122,121,121,120,121,122,121,120,121,121,121,121,120,122,121,121,122,121,122,123,121,121,120,119,120,121,121,118,121,121,120,120,121,121,122,124,123,122,121,121,121,121,122,121,122,122,119,119,121,121,122,121,122,121,122,122,122,121,121,121,121,119,120,123,122,122,121,120,122,121,121,106,121,121,122,128,120,121,119,122,121,121,124,121,123,121,120
122,122,121,121,118,119,122,121,120,121,121,121,128,120,121,117,121,122,122,131,123,122,121,120,120,121,120,121,121,117,121,122,120,122,121,121,120,129,121,121,124,120,121,121,129,122,123,120,121,122,121,123,120,121,122,121,120,122,121,123,122,120,122,120,121,121,120,121,121,121,120,120,123,122,121,122,121,121,121,121,120,121,120,122,121,121,121,120,122,121,120,122,126,121,121,121,120,121,120,123,121,121,121,120,120,121,121,124,126,124,122,121,121,121,120,121,118,117,121,120,121,122,122,122,121,124,122,120
122,121,120,122,120,118,122,121,121,121,121,122,121,122,122,121,123,122,122,123,120,121,120,120,114,122,121,122,124,123,122,121,123,122,121,122,119,120,122,120,119,121,121,123,130,123,121,119,121,121,121,122,120,120,121,122,121,122,121,122,120,121,121,120,120,121,121,122,121,121,120,119,120,121,121,121,122,121,122,120,121,122,121,121,120,121,122,121,120,120,120,120,121,121,122,121,120,121,121,122,120,122,121,120,120,121,121,121,118,121,122,121,120,121,121,122,122,119,119,116,121,122,120,121,119,120,121,122
121,122,121,121,122,123,122,121,129,121,121,121,120,118,121,121,120,122,121,121,126,123,121,121,120,121,121,123,126,119,122,120,121,123,121,123,122,122,122,121,121,121,121,117,112,122,121,121,120,121,120,121,126,120,121,120,120,121,121,122,117,120,122,121,121,121,120,121,121,121,121,120,120,122,121,121,120,121,121,121,120,121,121,122,124,121,122,120,121,122,121,122,127,122,121,121,120,122,122,122,120,122,122,120,120,121,121,122,125,121,121,119,120,121,121,122,120,120,122,119,122,121,121,122,129,122,122,120
122,122,122,122,118,119,121,121,121,121,121,121,120,121,122,121,120,121,121,122,121,120,121,117,120,121,121,122,121,121,122,122,121,122,121,122,119,119,120,121,122,122,121,122,124,124,121,121,120,121,121,122,119,119,121,120,121,122,120,118,119,121,122,121,121,121,121,121,120,118,121,121,121,122,120,122,119,121,121,121,121,122,121,118,117,122,122,121,121,122,120,120,124,122,121,120,120,121,121,123,118,120,122,120,120,121,121,120,118,122,122,119,121,122,122,124,126,122,121,120,121,121,120,121,116,121,122,121
119,121,121,122,121,120,120,120,127,121,121,121,120,121,122,122,122,121,121,121,122,121,121,120,105,120,121,122,122,121,121,118,123,122,120,120,121,122,122,122,122,121,121,122,117,120,121,120,120,122,121,120,121,122,122,121,120,121,121,122,123,119,120,119,119,120,121,123,124,124,122,120,120,121,121,122,122,121,122,120,121,121,120,121,117,122,123,123,120,122,121,122,127,121,120,119,119,121,121,129,116,121,121,120,121,122,122,124,122,119,120,120,121,121,120,121,121,121,122,120,120,121,121,122,123,123,121,120
121,122,122,122,123,120,121,121,119,122,121,122,120,120,120,120,126,121,120,121,120,121,121,120,116,121,120,121,122,121,121,120,122,122,122,124,127,119,122,121,121,121,121,121,122,124,122,120,120,121,121,121,119,119,121,121,120,121,121,123,120,119,119,120,121,121,121,122,126,125,123,121,120,121,121,122,122,120,121,118,121,122,121,121,120,119,121,121,121,122,121,122,121,122,121,122,120,121,120,122,125,122,121,120,125,121,122,121,120,120,121,119,121,122,121,121,121,122,122,121,121,122,121,122,120,121,121,120
120,122,121,120,120,121,121,120,121,122,122,123,133,121,121,120,120,121,121,118,113,119,121,121,119,121,121,123,122,121,121,119,120,121,121,122,121,121,121,121,120,121,121,122,122,121,120,119,121,122,122,122,122,120,122,120,120,121,120,122,121,121,121,121,121,121,121,122,121,123,122,121,119,121,121,123,121,120,120,120,120,122,122,122,123,123,121,121,114,121,120,121,119,127,122,125,120,121,121,121,119,118,121,115,119,120,120,120,123,120,120,118,121,122,120,121,119,119,122,122,123,122,120,121,120,121,122,121
124,121,121,121,120,121,121,121,118,121,121,122,124,123,121,120,121,121,121,122,122,120,120,120,120,121,121,122,123,120,121,120,121,121,120,120,119,119,121,120,122,122,121,121,121,122,121,120,121,122,121,123,133,122,122,121,121,122,122,124,121,121,123,121,120,121,120,121,120,121,122,121,120,121,120,120,118,120,121,120,120,121,122,126,123,122,122,121,121,122,122,122,129,123,123,120,120,121,121,122,118,122,121,120,121,122,121,122,120,121,121,120,120,122,120,122,125,123,122,120,121,122,121,120,115,121,121,121
120,122,121,122,121,121,122,120,123,122,121,121,119,118,121,120,121,122,121,122,121,122,122,121,121,122,121,122,122,118,121,119,117,121,120,123,126,129,121,120,122,121,121,123,119,121,122,120,123,122,120,121,120,119,121,121,121,121,121,122,125,121,122,121,121,122,122,122,121,122,122,120,121,121,120,121,119,121,121,121,121,121,121,123,129,124,121,119,120,121,121,122,121,122,122,120,121,122,121,121,120,121,121,120,119,121,121,122,121,122,121,119,120,122,121,121,120,120,122,120,122,122,121,121,123,122,122,122
120,121,121,122,121,122,120,119,120,121,121,121,119,115,121,121,120,122,122,122,120,123,120,120,121,121,120,122,118,120,122,119,121,121,120,123,122,121,121,120,120,121,121,122,128,121,122,120,121,121,121,122,119,123,122,121,122,122,122,121,121,120,121,121,104,120,120,122,121,121,119,116,120,122,121,119,119,121,122,121,124,121,121,123,122,122,121,119,123,121,120,121,119,120,122,121,118,121,121,122,122,121,121,119,122,122,121,122,122,121,121,120,126,122,121,122,122,122,122,120,119,121,122,122,121,120,120,120
120,121,121,122,120,121,121,120,121,121,121,121,120,121,122,120,123,121,121,121,123,122,122,121,118,122,122,122,121,125,122,121,121,121,121,122,121,119,120,120,120,121,121,119,122,121,121,120,120,121,121,128,130,120,122,121,123,123,121,120,121,122,121,122,118,122,121,121,119,122,120,119,123,121,121,122,126,122,122,121,112,120,120,121,122,120,121,120,122,122,121,123,120,121,121,120,120,122,121,122,121,121,120,120,121,121,120,121,121,120,121,120,121,122,121,122,121,121,122,120,120,120,121,121,119,121,121,121
121,122,121,122,121,121,121,121,120,121,121,122,122,121,121,120,121,122,121,122,120,121,121,121,121,122,121,123,120,121,121,120,120,122,121,122,120,121,122,120,120,121,121,122,122,122,122,120,120,122,121,122,123,121,122,121,119,121,121,121,122,123,121,120,121,120,121,122,121,122,121,118,121,122,121,121,118,119,121,121,121,122,121,121,121,121,121,120,120,121,121,122,115,121,122,120,120,121,121,122,121,114,121,121,122,120,120,123,122,128,121,120,113,121,121,118,117,121,121,120,125,122,121,126,121,119,121,121
123,122,121,119,117,119,120,120,121,121,121,122,123,122,122,120,119,120,121,122,121,121,121,120,123,122,120,122,121,122,122,121,121,120,120,121,113,119,120,121,120,122,120,121,129,122,122,120,120,121,121,122,118,120,121,120,122,121,120,122,122,121,121,121,121,122,121,121,118,118,120,120,121,121,121,121,122,124,121,120,120,122,121,122,118,120,122,120,120,121,121,122,118,118,121,120,122,122,120,122,127,123,122,121,116,120,120,122,120,120,122,121,121,122,121,122,113,125,122,121,122,122,121,120,124,118,120,120
122,121,121,122,119,122,121,120,120,121,121,121,122,121,121,120,122,122,121,123,122,121,122,120,115,122,122,125,130,122,121,120,121,121,120,117,116,120,121,120,120,121,120,122,120,122,122,120,120,121,122,125,130,120,121,121,121,122,121,118,117,120,123,121,121,122,120,121,126,126,122,121,121,122,123,127,123,120,121,120,120,121,120,122,122,121,121,120,120,122,121,122,120,123,121,120,121,121,121,121,120,120,122,121,120,121,121,122,121,115,122,120,120,121,121,123,121,128,122,120,120,122,122,123,121,118,120,121
123,122,121,121,123,126,121,120,117,121,121,122,114,123,122,120,122,121,120,120,120,116,120,120,121,122,121,122,121,122,122,121,124,122,121,121,122,122,122,122,114,121,120,122,120,120,122,120,122,122,121,121,121,125,121,120,121,121,121,122,120,120,120,119,121,122,122,122,121,121,121,121,121,122,121,121,120,121,122,121,110,121,120,123,125,120,122,119,121,122,120,122,119,119,121,121,121,122,122,128,123,122,122,120,121,122,122,123,123,119,120,120,121,122,122,122,122,122,121,120,120,122,121,121,122,121,121,120
120,122,121,122,119,118,121,120,120,121,120,123,121,120,121,120,121,122,121,121,117,121,122,121,121,122,121,123,121,121,120,120,120,122,121,122,121,120,121,119,121,122,121,122,119,121,121,120,121,122,121,121,130,120,122,121,121,121,120,120,117,121,121,120,122,121,120,123,127,120,121,121,120,121,120,119,118,123,122,121,121,122,121,123,119,120,121,120,125,122,120,122,121,122,122,122,115,121,121,121,120,121,121,120,125,121,121,121,119,120,121,118,121,121,120,121,121,121,121,121,122,122,121,122,119,119,122,121
122,122,120,120,119,121,122,121,121,122,122,125,124,120,121,120,120,121,121,122,120,122,120,119,120,121,121,120,118,121,122,120,121,122,121,122,121,120,120,120,120,121,120,121,126,120,121,121,120,122,121,122,123,122,120,120,120,121,121,123,125,121,121,120,120,122,121,120,113,119,120,119,119,121,121,121,127,129,121,120,121,122,121,121,119,120,122,121,121,122,121,124,134,119,122,121,120,121,120,123,116,121,120,120,120,120,121,122,121,121,121,121,120,121,121,121,123,122,122,117,120,121,121,123,123,122,121,120
121,121,120,119,123,122,122,121,121,121,121,124,122,121,122,121,121,122,121,120,120,121,121,121,120,121,121,122,121,121,121,120,119,121,121,122,123,121,121,120,123,122,121,121,124,119,120,121,118,122,121,123,131,122,122,121,122,121,121,117,115,121,121,121,123,121,121,122,121,121,121,120,121,121,121,121,121,124,122,121,121,121,120,122,121,121,122,121,120,122,121,121,124,118,120,120,121,122,121,121,121,122,123,121,121,121,120,122,123,122,122,121,120,121,120,121,122,121,121,121,120,120,121,122,121,118,120,121
121,121,121,124,125,122,123,124,119,121,121,123,133,121,122,116,120,121,121,125,124,122,121,121,119,121,121,123,119,120,121,119,121,122,120,123,121,120,121,121,122,122,121,122,121,120,120,120,120,121,120,122,124,122,121,120,120,121,120,120,117,122,121,121,113,121,122,122,123,118,120,119,123,122,122,123,131,121,122,121,114,120,120,121,117,113,121,119,123,121,121,122,120,128,121,121,122,121,121,122,121,124,123,118,121,122,122,123,120,125,124,122,122,122,122,121,122,119,120,119,121,122,121,121,119,119,121,121
121,122,121,121,121,127,120,121,121,121,121,122,121,121,122,120,120,121,121,122,120,119,121,120,120,121,121,120,119,123,122,121,120,121,120,122,124,118,119,120,121,122,121,121,120,120,122,120,121,122,122,120,123,122,122,121,121,122,122,122,119,121,121,120,120,121,121,123,123,126,122,120,121,121,120,121,120,119,121,121,120,121,121,121,121,123,121,120,120,122,121,122,122,122,121,120,121,121,120,123,133,122,122,120,120,121,121,122,117,119,121,120,120,122,121,121,121,124,121,120,125,121,121,122,121,121,122,120
120,122,121,121,121,121,122,120,120,122,121,121,122,119,120,119,126,121,121,120,119,122,122,121,108,120,121,122,118,112,121,117,122,122,121,122,120,128,121,121,122,122,122,121,120,120,121,121,121,122,121,123,120,122,121,121,121,122,122,122,120,118,121,120,120,121,120,122,119,122,121,121,121,121,121,122,122,126,123,121,119,121,121,122,121,119,121,120,120,121,121,122,119,118,121,120,121,122,121,122,120,122,122,120,120,122,121,122,119,117,121,120,121,121,121,121,124,125,122,121,121,122,121,121,119,119,121,120
120,121,121,122,118,120,120,119,121,121,121,122,120,121,121,121,120,121,121,122,119,120,121,120,120,121,120,122,122,122,121,121,120,121,121,121,119,121,121,121,120,122,121,123,122,120,121,121,120,121,120,122,119,121,121,120,119,121,121,123,125,131,121,119,120,122,121,123,121,117,120,122,120,121,121,122,122,118,121,118,121,121,121,122,120,121,122,121,120,121,120,122,122,119,121,121,120,122,120,121,122,122,122,121,119,121,120,121,119,119,121,119,121,122,121,123,125,122,124,121,120,121,121,122,120,124,121,120
123,122,121,122,120,117,120,120,122,121,121,121,121,122,121,121,120,122,122,122,111,119,121,121,124,121,121,122,124,122,121,120,112,121,121,122,122,123,121,119,123,122,121,121,121,121,121,120,115,121,120,122,122,121,122,120,124,121,121,122,119,121,123,121,119,121,121,123,129,122,122,120,120,120,120,120,113,120,121,120,121,122,120,122,119,120,122,121,121,122,121,121,122,121,121,120,120,121,121,121,121,122,122,121,120,120,121,122,120,122,122,120,121,121,120,122,122,123,121,120,121,122,122,123,119,121,121,121
120,121,121,121,121,121,121,122,122,121,121,128,125,120,122,117,119,121,120,121,121,121,122,121,121,122,121,122,122,122,122,121,121,122,121,123,121,121,120,120,121,122,121,121,113,121,121,121,119,121,121,121,122,119,120,121,123,121,121,122,121,124,121,119,119,121,121,123,122,120,121,120,120,121,120,119,115,119,121,120,120,122,121,122,121,121,120,120,120,121,120,122,122,122,122,120,124,122,122,123,121,112,121,121,115,121,121,122,121,127,121,120,122,121,120,122,122,120,121,121,117,121,121,122,117,120,120,119
121,122,121,121,121,120,121,121,121,121,120,121,121,121,121,121,121,122,121,123,123,121,121,121,120,121,120,121,122,122,121,120,121,121,120,122,122,120,122,121,120,122,121,121,119,120,121,121,121,120,120,122,121,121,121,120,120,121,120,119,112,120,121,121,121,121,121,127,126,124,122,122,121,122,121,121,117,117,121,119,120,121,121,121,119,119,121,122,120,122,120,122,122,122,121,120,121,121,121,122,124,123,122,120,121,121,120,121,120,120,121,120,121,122,120,121,120,121,121,120,120,121,121,122,123,121,121,121
119,121,121,122,118,120,120,120,121,121,121,120,120,121,121,120,120,121,122,122,121,120,121,120,121,121,121,122,120,120,121,121,120,122,121,123,124,123,120,120,122,120,120,122,117,120,122,120,120,121,120,122,123,121,122,121,120,121,120,121,118,120,122,120,121,122,121,122,122,125,120,121,114,122,121,120,119,117,120,118,123,122,121,121,119,121,121,122,121,122,121,123,122,120,121,121,121,121,121,122,114,121,121,120,121,121,120,121,120,122,122,120,120,121,120,117,119,120,121,121,121,122,121,122,121,123,121,121
120,121,121,119,122,124,123,121,120,121,120,121,118,121,121,120,121,121,121,122,123,122,121,120,124,122,121,122,120,120,121,120,120,121,120,122,120,121,121,122,120,122,122,121,120,121,121,120,120,122,121,122,120,120,120,120,120,121,121,122,121,120,122,120,120,122,122,122,124,130,121,121,120,121,121,122,121,119,120,119,120,122,121,122,120,120,121,121,120,121,120,121,122,121,121,121,121,121,121,122,122,121,122,120,120,121,121,122,122,121,121,120,121,121,120,121,122,124,123,122,120,121,121,122,121,120,120,118
122,122,121,123,123,125,123,123,121,122,121,122,120,117,119,120,121,122,120,122,122,124,122,121,120,122,121,122,117,119,121,121,121,121,120,120,129,122,121,120,120,121,121,123,119,120,121,120,120,121,121,121,123,122,121,120,120,121,121,121,116,119,121,120,121,122,122,122,119,121,120,120,120,121,120,121,121,120,121,121,121,121,120,123,124,122,122,121,119,121,121,124,122,122,121,119,123,121,121,121,120,119,121,121,121,122,121,122,122,121,122,120,120,121,120,122,122,122,122,121,120,121,121,124,127,123,121,119
121,122,122,120,123,119,121,120,121,122,120,122,122,121,121,121,120,121,121,122,128,123,122,120,120,122,121,122,120,121,121,121,121,122,121,122,123,121,121,120,122,122,122,121,110,121,122,122,121,121,120,119,129,121,121,117,119,121,122,127,120,122,122,121,120,122,122,121,119,120,121,121,122,121,120,121,121,121,122,120,121,122,122,122,119,120,121,120,120,121,121,120,121,121,121,120,121,121,120,121,119,121,121,120,120,122,122,122,120,120,121,120,120,121,121,123,123,120,122,119,121,120,121,121,114,119,121,121
115,121,120,122,122,121,121,120,121,121,121,122,124,124,122,121,121,122,120,121,123,121,121,120,121,122,121,122,120,122,122,121,121,122,121,122,120,120,120,120,120,121,120,121,121,120,121,122,121,122,121,122,122,121,121,120,120,121,121,122,120,121,121,121,120,122,120,121,123,121,121,121,122,121,121,122,119,120,122,118,118,120,121,119,116,122,121,120,120,121,121,122,120,121,122,121,120,122,121,122,117,120,121,121,121,122,120,121,126,130,121,120,120,122,120,121,119,119,122,121,121,121,121,122,122,121,120,119
121,121,120,121,120,119,121,121,122,120,121,123,123,122,121,120,121,122,121,119,119,121,122,121,120,121,120,121,121,120,122,121,120,121,121,122,118,122,121,120,121,122,121,122,123,120,121,120,120,121,121,123,119,121,122,121,121,122,121,121,121,120,121,120,120,122,121,121,117,121,120,120,119,121,121,122,121,121,121,122,121,122,121,123,131,124,122,121,120,121,121,120,119,120,120,119,120,121,121,122,120,121,122,121,121,121,121,121,122,121,122,120,123,121,121,122,124,122,122,121,120,121,120,121,121,122,123,120
117,122,122,123,120,121,120,120,121,121,120,121,122,121,121,120,121,122,122,122,121,121,121,120,121,122,120,121,121,121,122,121,121,122,121,120,120,120,121,121,120,122,121,122,123,121,121,119,121,122,120,117,117,121,122,121,121,122,122,122,122,119,121,120,122,121,120,121,121,120,121,121,121,122,121,121,122,121,122,121,121,121,121,122,124,123,123,120,120,122,121,122,113,120,120,121,120,121,121,121,121,123,121,119,120,121,121,123,123,123,122,120,120,121,121,121,121,120,121,119,121,122,121,121,121,121,121,120
121,122,121,122,121,121,122,121,120,121,120,122,121,122,120,119,120,122,121,121,119,119,121,120,120,121,121,122,121,122,121,120,121,122,121,121,119,119,120,121,120,121,120,122,121,122,122,121,121,121,120,121,119,121,122,119,120,121,121,127,126,121,121,121,120,121,121,119,122,122,122,121,120,122,121,121,116,119,119,120,121,121,120,121,121,122,121,121,121,122,122,121,118,123,120,121,120,122,121,123,120,122,123,121,119,121,121,118,109,120,121,120,121,121,120,121,123,121,121,119,119,121,121,122,121,122,120,120
121,121,121,121,120,121,121,122,120,121,121,121,122,123,121,120,121,121,120,122,121,120,122,121,120,121,120,122,120,120,121,120,121,122,120,122,120,122,120,120,120,120,120,121,123,121,122,120,120,122,121,121,121,121,119,120,120,121,121,122,122,122,121,122,121,121,121,121,119,120,121,118,121,122,122,124,124,123,120,120,121,122,121,120,116,119,121,121,121,121,121,120,121,121,122,121,121,122,121,123,129,121,121,121,121,121,121,123,122,122,122,121,120,121,121,122,123,121,122,120,119,121,121,122,121,120,120,119
120,122,121,122,114,122,121,120,121,121,121,122,123,120,120,120,120,121,120,118,118,121,121,120,120,122,121,122,119,120,122,120,121,122,122,125,122,122,121,120,120,121,120,121,121,121,122,121,120,122,121,122,117,122,122,120,120,121,121,122,122,119,120,119,120,122,121,122,121,120,121,120,121,122,120,121,123,123,122,121,121,121,120,117,117,120,122,121,120,121,120,122,119,121,122,120,120,121,121,122,122,121,121,120,120,121,121,122,119,122,121,119,120,122,121,122,121,121,121,121,122,122,121,123,123,122,122,120
120,121,121,124,117,119,120,123,120,122,120,122,126,120,121,117,121,122,120,121,121,119,120,121,120,122,121,122,123,124,123,120,120,120,121,122,129,120,121,120,121,121,120,121,119,121,121,121,121,122,121,121,122,129,120,120,120,122,121,122,122,119,122,120,121,122,122,123,121,119,122,120,121,121,120,116,117,122,121,121,120,121,122,125,122,121,121,119,121,122,122,123,130,124,121,119,121,122,122,122,122,119,121,121,123,121,121,123,121,121,120,120,119,121,121,122,121,121,121,120,120,121,121,123,122,121,122,120
120,122,121,119,115,122,121,121,121,122,122,123,127,123,121,120,121,122,121,121,120,121,121,121,121,122,122,122,117,119,122,120,121,122,120,122,122,124,121,121,121,122,121,121,122,121,121,121,121,122,121,122,121,120,121,120,121,122,120,122,120,122,122,121,121,122,121,122,127,122,121,119,121,122,121,122,123,122,121,120,120,121,121,121,118,120,121,120,120,121,120,121,123,122,121,120,120,121,120,119,124,122,122,121,121,122,120,122,120,123,122,121,121,122,121,124,119,119,121,121,120,121,121,122,122,124,121,119
121,122,121,122,121,120,121,121,121,122,121,123,119,121,121,120,121,121,121,122,121,119,121,120,120,122,122,123,116,125,122,120,120,121,120,122,123,124,122,120,121,122,121,121,121,120,122,121,121,121,120,122,122,121,122,121,121,121,121,129,124,119,121,120,121,122,121,120,116,120,122,121,121,121,120,121,128,122,121,120,120,121,121,122,119,120,120,120,120,122,122,122,121,122,122,120,121,122,120,122,121,121,122,121,120,121,121,122,121,121,121,120,121,121,121,122,121,120,121,119,121,122,122,123,122,123,121,119
121,122,122,121,122,120,122,121,121,121,121,122,122,121,122,121,120,121,120,123,122,122,122,121,122,122,122,123,121,121,122,122,120,121,121,122,121,121,120,118,121,122,121,119,112,123,119,121,120,121,120,122,122,121,122,121,120,121,120,121,122,123,124,121,121,122,121,123,134,121,122,122,120,121,121,121,119,119,119,119,121,121,121,122,121,122,121,120,120,121,121,123,122,122,120,120,121,122,122,123,121,121,122,120,119,120,121,122,121,121,121,120,120,122,121,122,120,120,120,120,120,121,121,123,124,124,126,122
121,122,121,122,122,115,119,120,120,122,121,117,115,123,116,117,121,121,121,124,122,119,124,121,120,121,120,122,123,121,126,125,121,121,120,122,120,118,117,118,119,121,121,123,122,123,123,120,122,122,121,120,117,119,123,122,120,121,121,127,120,120,125,122,120,122,121,123,127,125,124,122,121,121,121,122,123,122,121,121,121,122,121,121,115,116,123,121,120,121,121,123,120,122,120,119,119,121,120,125,129,121,121,119,121,122,121,122,122,122,123,122,120,122,122,119,118,121,120,120,122,121,121,122,118,121,120,120
119,122,121,126,120,121,120,119,124,120,116,120,121,115,121,120,120,122,122,121,122,129,121,119,121,122,121,122,121,117,121,120,121,122,121,122,131,125,122,123,122,122,121,132,124,119,124,118,130,121,120,120,128,121,118,121,123,122,121,130,157,123,123,121,121,122,121,125,110,119,121,120,122,121,122,125,135,119,124,121,121,121,120,118,118,112,122,124,119,121,121,121,122,116,109,113,121,121,121,121,125,132,129,123,121,122,121,122,123,113,127,123,120,120,120,122,121,132,116,119,120,121,121,120,115,118,116,117
122,122,121,122,124,125,126,123,121,122,121,121,123,119,121,122,120,121,120,118,113,136,122,120,120,121,122,125,121,116,120,120,120,120,119,109,125,124,122,120,120,122,119,138,114,123,124,121,120,122,122,129,134,122,119,119,120,119,119,122,104,117,119,119,119,121,124,125,147,131,123,121,120,124,120,123,115,112,123,122,124,108,129,130,123,114,123,121,118,128,124,115,118,119,115,119,118,121,121,113,118,114,121,119,119,118,119,115,140,144,120,119,139,113,100,120,109,102,117,124,126,134,127,120,146,138,132,122
125,101,113,120,129,119,115,120,122,150,137,141,116,86,121,123,123,123,119,119,88,145,121,119,122,120,121,119,116,99,125,124,121,119,110,125,130,170,122,119,120,119,118,115,122,129,123,119,120,121,119,125,120,121,123,121,122,122,120,114,118,106,122,122,121,122,122,125,125,113,121,119,121,122,122,127,108,143,118,120,120,121,124,137,160,112,118,118,120,120,120,117,77,114,123,121,121,122,122,117,114,113,117,120,122,122,121,121,87,126,128,123,120,122,121,118,114,108,116,119,119,120,120,122,119,144,126,119
120,124,122,113,115,117,121,122,126,124,118,117,107,107,119,121,121,123,113,117,108,122,119,121,119,120,127,113,90,139,125,119,123,119,139,122,133,144,119,120,121,124,114,126,123,91,116,120,124,122,120,113,75,93,127,122,118,120,118,132,190,146,126,121,116,118,120,125,124,90,114,116,126,123,121,120,87,132,114,122,100,115,117,118,92,101,128,117,114,134,130,128,119,72,115,120,114,116,113,120,102,152,119,119,124,126,121,126,96,75,127,121,118,119,104,107,106,95,115,118,121,123,120,129,196,151,124,121
121,122,127,122,119,117,114,118,120,121,121,128,121,145,130,122,122,122,122,110,131,103,117,119,122,124,140,123,126,174,133,123,121,141,122,115,111,90,115,118,121,115,111,107,116,129,130,120,120,120,133,125,140,108,113,118,121,122,121,115,67,148,120,120,118,107,118,119,117,119,128,121,123,127,136,133,159,116,112,118,119,122,110,113,83,117,119,120,124,123,149,129,140,130,130,125,119,131,133,128,106,139,116,118,122,130,109,126,180,110,132,123,111,143,127,119,116,161,128,117,126,92,81,124,140,114,107,120
122,121,126,121,101,153,130,121,125,129,132,123,91,77,123,124,122,59,97,122,110,92,117,122,122,153,129,119,138,154,129,116,121,128,130,123,128,100,117,121,120,119,112,116,147,196,119,119,122,103,109,122,97,61,127,124,121,125,144,121,114,125,115,119,122,123,120,113,170,151,126,122,120,122,119,115,151,93,120,120,118,111,83,113,90,132,120,120,118,123,117,116,125,124,110,117,121,122,121,123,106,147,134,124,118,119,120,121,125,139,117,117,119,120,118,125,107,103,122,120,121,121,130,125,108,119,116,119
120,120,112,113,102,121,123,121,121,122,121,134,160,123,122,120,123,118,122,123,122,127,120,123,120,119,115,125,119,71,114,120,115,105,158,118,128,167,131,117,123,116,129,121,129,119,118,121,119,122,143,122,121,130,122,120,122,119,122,116,122,110,119,122,119,120,122,112,115,115,120,119,109,124,109,125,79,74,116,116,110,145,151,127,131,150,132,120,124,123,115,86,57,96,113,121,120,119,123,146,124,132,133,123,121,118,111,120,108,110,106,119,116,116,117,114,114,117,123,112,119,121,120,118,120,129,125,122
123,123,122,120,92,86,136,124,120,121,120,124,148,133,108,119,121,121,119,115,102,109,122,121,120,121,120,117,94,79,117,120,120,122,122,124,173,148,126,121,122,122,121,123,121,108,123,123,119,121,121,118,102,125,118,116,120,131,123,130,130,72,118,120,117,134,95,100,124,171,131,120,121,115,116,125,114,113,116,119,120,125,120,116,89,98,113,118,121,120,129,128,121,128,124,121,122,118,134,120,117,113,113,119,120,120,121,128,145,150,140,123,124,123,122,111,183,120,113,121,122,122,122,130,101,144,123,122
119,119,120,122,109,72,118,119,121,126,137,113,121,161,129,124,118,119,120,117,97,122,126,120,118,120,120,122,121,115,107,118,118,119,120,123,123,98,111,111,122,122,122,123,138,116,124,123,121,121,113,127,120,109,126,122,119,119,118,117,113,120,122,120,120,115,119,126,120,126,117,119,119,119,121,95,101,138,128,120,120,120,126,121,121,115,122,121,121,116,107,122,115,103,113,120,124,118,131,124,120,122,126,120,118,113,108,117,138,122,115,119,123,116,121,121,117,117,125,121,124,117,119,114,125,113,113,121
121,122,121,117,105,135,134,122,121,124,125,112,117,104,118,120,122,126,121,125,129,146,128,123,121,122,121,122,105,113,118,123,120,121,121,115,116,133,122,116,120,122,122,115,122,133,123,123,121,121,119,118,120,106,122,121,119,119,115,113,112,133,122,120,121,122,138,129,127,120,128,123,123,128,159,132,139,111,121,123,121,121,119,123,124,128,111,118,127,121,118,121,108,104,129,123,116,119,133,125,130,123,129,129,127,118,116,128,102,118,113,112,133,120,126,144,124,135,123,120,122,121,116,125,118,113,123,121
121,115,108,120,105,142,122,121,123,124,121,107,110,78,117,122,120,120,118,118,123,135,125,121,119,122,120,137,109,115,118,118,119,115,118,121,136,96,111,119,119,121,119,125,111,145,129,115,122,120,118,119,125,115,114,122,119,122,119,103,86,110,117,119,122,120,112,131,114,139,132,124,121,124,122,121,138,117,121,120,121,122,119,119,113,117,117,119,122,124,124,121,123,130,128,123,122,126,121,128,132,135,127,123,120,123,121,122,122,115,121,121,121,124,124,122,119,119,122,121,123,160,155,118,115,132,116,119
120,121,136,138,132,139,127,122,124,141,141,123,101,112,128,122,123,123,122,123,144,98,118,122,119,119,119,119,122,108,117,119,122,121,121,116,83,110,124,122,122,121,126,121,124,137,130,125,117,120,121,134,124,109,99,112,121,121,120,128,127,130,127,122,121,116,97,114,152,121,131,124,120,121,121,129,149,89,117,120,122,130,129,126,105,136,137,124,123,118,113,116,118,115,117,121,121,122,119,117,121,117,120,119,120,123,125,123,126,116,123,120,119,117,111,121,123,122,119,119,122,121,133,128,134,119,122,120
120,121,121,114,115,119,121,119,122,140,134,131,134,116,121,121,123,129,129,125,118,114,117,119,125,128,130,117,113,119,110,121,115,124,147,127,130,137,129,119,118,120,119,121,120,132,122,120,122,121,121,113,135,120,118,120,120,121,124,100,120,131,125,120,120,131,124,135,89,109,116,119,121,120,119,124,149,123,129,126,120,121,121,120,119,133,124,118,120,121,118,118,117,110,117,120,121,122,122,122,131,104,124,121,119,122,114,122,104,112,125,117,123,127,114,119,126,147,129,124,119,114,123,121,117,107,119,121
120,124,124,108,117,128,126,121,121,120,119,118,87,113,118,125,118,119,117,113,114,126,115,110,122,122,123,117,145,144,130,122,122,134,164,121,144,83,127,121,116,124,125,128,138,129,129,127,122,118,115,122,112,118,127,120,123,128,128,118,136,110,118,124,117,118,108,116,121,131,114,120,121,118,118,112,115,135,125,116,120,118,117,125,116,112,116,119,120,121,129,121,143,122,125,124,122,120,121,124,135,128,130,123,122,123,123,111,119,93,115,121,121,117,125,122,127,151,130,122,123,129,128,145,145,121,123,128
118,121,149,120,120,132,121,107,119,111,129,110,100,106,120,126,121,126,127,123,126,125,130,119,116,120,126,125,125,104,107,119,122,121,124,122,113,122,126,122,121,123,127,119,116,134,111,121,122,122,115,108,98,95,130,116,122,124,133,128,148,108,128,126,119,120,124,108,114,120,116,116,121,121,125,119,109,121,118,136,122,120,120,118,134,119,119,97,115,125,122,114,131,122,124,117,123,118,120,119,107,111,120,138,124,122,120,121,118,120,115,112,121,123,123,136,180,134,134,130,120,129,125,106,102,130,114,117
119,115,125,124,137,145,129,120,123,143,120,126,103,111,123,123,119,115,100,111,151,140,130,124,113,121,129,124,113,113,123,118,124,116,112,121,131,117,121,122,127,122,122,122,108,120,120,120,118,116,120,120,116,120,120,119,120,120,118,117,128,131,125,134,120,127,130,121,112,124,115,105,121,122,113,123,133,139,134,127,120,120,122,133,123,129,118,115,121,122,122,129,123,131,143,124,116,120,121,120,144,116,91,115,122,122,121,105,83,137,136,130,122,124,123,125,145,113,123,124,120,118,113,118,113,120,129,130
121,122,127,119,123,118,119,111,120,122,119,123,124,109,126,123,119,113,114,112,112,125,122,119,122,128,119,135,123,112,116,121,118,112,115,130,133,132,123,118,125,118,118,117,123,104,118,122,128,121,117,117,107,116,119,123,120,150,122,126,125,131,128,124,97,116,125,133,129,119,119,106,119,119,119,147,122,97,118,123,121,121,113,120,109,121,125,125,126,123,123,121,136,119,135,127,124,121,111,127,153,129,117,124,119,121,123,97,136,119,119,118,123,122,120,125,132,141,132,125,118,119,117,113,113,127,109,116
120,121,120,128,125,129,131,120,121,121,120,111,112,116,126,123,122,133,124,129,165,112,120,122,122,129,126,133,128,139,127,122,120,118,120,126,121,118,119,120,119,122,120,112,126,131,114,118,121,104,113,120,114,116,123,121,121,125,120,121,132,128,120,120,123,128,118,117,97,113,117,121,120,117,111,129,136,126,119,119,120,119,116,125,94,117,124,121,120,108,115,135,134,125,126,118,120,120,125,116,111,119,111,117,119,120,127,120,117,122,125,119,123,123,124,128,121,134,123,122,123,123,120,121,128,105,123,124
118,118,115,120,120,139,110,110,120,125,118,125,116,113,123,119,123,120,117,114,115,141,144,128,120,122,125,135,129,112,88,117,120,120,119,111,133,121,133,120,120,121,120,115,96,110,124,120,120,119,117,124,114,126,124,123,119,119,117,116,114,138,122,120,120,121,121,121,117,99,120,124,119,119,121,129,139,123,121,114,122,116,117,124,103,126,125,122,118,121,112,111,111,106,116,116,120,122,125,129,117,130,121,124,120,125,118,130,155,101,119,118,120,124,125,120,146,144,129,123,121,123,122,103,112,121,119,120
123,124,122,133,119,119,123,124,119,118,118,116,118,127,115,115,121,123,121,119,113,123,128,122,121,122,122,124,127,103,124,127,120,121,120,118,118,129,127,116,119,121,117,125,130,122,106,123,122,119,123,123,117,124,128,122,119,118,123,121,122,121,123,121,120,116,119,114,110,110,122,120,120,122,121,121,121,130,126,120,120,126,131,134,119,123,117,119,122,116,118,106,107,132,127,128,120,121,122,125,123,112,117,114,120,121,119,121,113,125,112,121,120,122,115,119,142,135,128,120,120,118,138,117,97,127,117,119
123,120,108,115,143,116,125,124,121,123,127,130,138,133,116,118,121,121,118,119,111,124,131,124,120,121,122,122,132,98,107,114,121,121,120,119,114,128,124,120,122,119,120,125,132,121,124,121,120,131,133,119,110,124,125,120,122,118,119,130,134,130,127,124,122,121,121,117,111,114,122,120,120,120,119,120,102,113,118,120,119,121,120,120,140,122,111,116,120,123,123,124,128,126,124,119,122,121,120,142,130,119,125,121,122,121,119,119,118,116,122,129,120,122,124,112,104,117,115,108,117,118,118,120,131,102,113,119
122,123,124,137,131,146,126,123,121,122,120,118,110,94,116,120,121,118,120,124,120,123,124,122,121,120,123,126,154,123,124,120,118,117,113,111,128,117,117,117,121,120,128,121,111,126,123,121,122,123,153,115,124,115,119,120,117,124,118,124,126,141,127,120,120,121,123,123,112,112,118,119,120,122,120,118,120,122,120,121,121,121,120,123,121,119,114,119,120,126,118,117,133,137,128,123,118,121,120,116,104,117,121,119,121,125,124,121,127,115,122,121,119,120,120,121,103,129,114,118,123,122,119,119,105,109,121,123
116,121,123,133,127,102,115,109,123,121,122,121,113,108,123,125,121,121,122,122,142,112,119,123,121,122,121,103,94,117,120,116,121,122,122,126,127,117,119,121,122,120,121,123,94,95,118,122,121,123,118,125,122,133,125,123,121,133,130,125,117,104,120,118,121,122,127,124,123,130,120,121,121,118,118,125,125,123,127,121,121,132,121,125,109,116,118,123,116,119,120,123,128,120,120,112,121,120,153,121,114,113,116,121,123,121,112,128,138,128,119,120,120,124,127,124,118,118,120,120,116,121,121,122,126,127,123,119
121,121,119,118,131,122,120,122,119,121,121,128,129,87,114,114,120,121,122,129,134,139,129,125,118,120,116,115,100,112,114,116,122,122,123,124,131,126,131,124,122,122,122,125,112,117,119,121,119,120,119,117,91,104,118,116,123,121,119,127,139,122,128,124,121,125,120,123,108,119,121,122,120,120,123,132,134,126,125,122,122,123,121,114,123,121,123,121,122,123,122,118,119,130,122,121,120,127,118,114,137,118,119,120,120,117,115,120,123,117,119,118,121,121,123,119,114,116,117,118,118,133,142,125,140,127,123,119
123,120,124,115,118,133,122,120,122,120,117,110,99,105,120,121,120,106,121,135,164,130,121,120,121,120,119,115,107,122,121,128,120,121,115,110,148,120,116,106,119,124,124,127,121,131,125,125,121,122,120,126,132,124,127,121,120,121,121,119,120,119,122,118,119,125,124,122,116,107,109,114,122,122,120,126,127,117,119,120,121,121,122,125,134,129,128,123,121,116,119,117,107,125,119,118,120,122,115,122,128,119,123,122,121,124,123,120,114,117,121,120,120,121,121,122,113,119,120,121,122,123,123,122,140,122,120,119
120,132,132,120,129,126,120,120,120,117,121,125,108,113,118,119,121,121,116,124,122,121,122,120,122,120,121,123,111,124,123,122,120,122,120,116,151,119,118,119,121,118,123,131,126,124,122,121,121,119,119,117,122,126,125,132,121,132,126,120,101,117,121,108,122,120,121,128,124,115,123,127,119,121,121,123,119,123,104,112,119,120,121,123,129,117,121,118,121,121,120,120,122,122,125,123,121,122,122,123,122,111,120,120,120,121,120,121,117,119,120,120,119,120,121,123,129,130,122,120,120,121,121,121,123,134,123,120
122,123,124,121,109,93,114,120,120,122,120,121,124,125,122,121,121,123,124,123,125,124,123,130,120,139,125,121,122,124,120,106,120,120,120,118,114,116,122,122,123,122,121,123,116,117,120,125,120,119,117,124,125,126,124,119,120,133,117,121,116,121,123,122,120,123,123,140,154,125,118,119,119,120,120,116,136,114,116,117,121,116,118,118,121,127,123,123,118,119,118,116,105,121,122,119,120,118,122,128,118,116,121,121,119,119,118,129,137,122,116,118,120,121,121,121,130,121,126,120,121,122,120,122,114,120,120,121
119,117,121,119,120,123,121,119,121,123,119,121,128,122,115,118,121,121,120,120,134,126,123,121,120,122,119,122,118,123,119,119,120,120,119,121,115,102,111,117,121,121,122,124,122,126,128,122,121,125,123,121,120,124,121,121,120,119,116,119,124,127,123,120,120,122,121,122,118,108,119,119,120,128,123,126,135,126,122,120,120,117,112,119,128,123,121,120,122,127,117,127,120,120,123,123,120,120,123,121,119,126,119,120,119,130,124,112,108,107,117,117,123,121,125,118,125,141,125,124,120,121,121,121,120,123,125,118
123,121,121,121,125,121,121,122,122,122,119,119,133,120,117,117,121,122,122,120,117,130,114,118,121,120,119,118,118,122,121,118,118,115,114,117,127,112,122,121,121,127,136,121,108,124,125,121,121,121,120,117,129,126,126,121,120,120,120,118,114,114,112,120,120,122,121,119,112,122,122,120,119,110,113,127,125,127,123,121,120,125,118,106,113,121,127,121,120,120,120,118,106,124,111,117,120,124,123,123,115,91,110,116,121,120,116,122,122,143,134,122,120,122,121,120,121,121,118,117,121,123,121,124,134,122,121,122
121,122,121,122,135,128,121,120,119,120,116,122,118,118,126,120,118,116,123,113,101,123,113,118,121,144,118,119,122,133,122,121,118,117,119,118,125,114,123,119,116,119,119,120,118,127,122,123,126,125,122,121,119,123,119,118,117,121,120,125,126,123,125,122,119,119,121,123,120,146,125,120,122,119,117,121,133,111,120,121,120,120,120,118,121,132,121,124,120,122,121,128,128,120,127,112,119,120,118,116,113,108,114,118,120,121,120,122,128,121,125,120,121,122,121,120,115,106,122,123,119,119,120,122,129,138,118,118
121,122,122,124,122,111,119,119,120,121,124,113,129,111,118,120,120,122,120,129,135,144,130,121,120,121,123,122,119,108,127,119,120,122,121,119,108,113,107,119,121,120,115,121,126,126,130,120,124,124,122,121,120,116,123,122,122,123,123,122,123,122,123,122,118,119,124,113,106,119,123,120,121,123,121,124,135,138,120,121,122,117,119,128,123,123,122,125,120,129,119,121,131,119,124,117,119,118,117,119,108,111,123,121,120,122,117,122,129,121,119,121,121,122,123,128,152,140,127,122,120,122,121,129,107,119,133,122
120,119,118,125,133,122,106,118,122,123,124,123,102,98,120,119,122,123,119,127,123,141,136,126,120,121,122,129,127,122,126,119,121,122,123,120,118,123,122,120,121,132,125,113,102,103,120,122,120,120,122,122,142,126,122,120,119,115,118,117,118,120,121,119,120,123,124,121,111,120,122,119,119,118,121,121,120,114,119,117,121,118,118,129,126,136,119,120,119,120,119,116,112,120,124,121,123,123,124,127,126,107,121,122,121,121,120,121,103,124,120,120,121,122,121,125,140,129,132,122,121,123,122,130,118,126,111,123
119,118,119,120,123,118,118,114,121,120,114,110,116,131,130,121,122,119,122,120,100,99,119,122,121,124,122,120,122,119,116,122,120,121,124,129,130,126,119,118,121,119,120,119,113,123,121,121,120,120,121,120,117,122,121,121,122,123,123,125,128,111,126,122,121,122,121,120,127,122,120,119,121,122,120,124,120,123,119,121,120,122,130,124,137,129,128,121,120,129,117,119,108,117,120,120,120,120,120,124,135,106,113,119,121,132,125,126,123,139,126,120,120,121,119,117,134,117,125,121,120,120,121,129,137,117,109,120
121,121,121,120,131,126,128,122,120,120,118,113,123,118,120,118,119,120,121,130,109,117,124,119,120,120,115,119,165,136,121,117,119,129,121,119,105,112,120,119,123,121,121,122,139,139,132,125,120,121,120,117,120,117,113,125,119,120,119,119,121,110,108,108,121,122,122,121,103,134,124,123,119,120,119,117,121,114,123,120,121,122,118,121,118,118,121,121,121,124,124,123,123,123,121,121,117,120,120,121,117,122,124,120,123,124,122,122,123,129,116,121,119,128,128,121,118,117,119,116,118,120,122,121,116,118,124,121
121,122,121,126,123,126,121,122,121,121,121,120,113,116,120,121,122,123,122,114,124,130,121,121,120,123,118,119,134,110,126,121,120,119,119,117,115,119,120,120,121,121,121,122,118,116,125,122,121,124,122,121,117,119,118,120,118,117,120,123,128,141,115,118,121,119,116,116,118,119,123,118,122,120,118,124,121,122,129,124,122,123,122,125,132,127,124,124,120,122,121,119,118,132,130,123,118,119,120,114,107,111,100,111,126,124,127,134,146,120,132,126,116,127,125,116,108,116,121,121,128,120,120,128,147,127,135,125
118,117,122,134,122,121,113,123,116,120,118,115,126,111,99,104,122,123,122,120,114,132,130,125,120,122,120,122,154,118,126,124,124,123,123,119,116,102,136,129,118,120,121,115,110,146,88,108,122,122,120,117,105,115,137,124,121,122,121,124,125,133,117,120,120,121,120,118,95,72,123,121,120,121,120,120,138,128,125,121,121,131,129,124,113,126,123,122,121,115,108,121,121,120,116,116,121,123,125,122,117,119,119,120,121,122,128,121,118,120,121,120,121,122,110,117,116,129,122,121,119,121,139,133,118,120,123,120
122,123,121,112,103,120,127,121,121,124,119,124,124,119,112,122,118,118,118,120,118,118,122,117,119,119,121,121,104,126,120,119,119,121,119,126,123,108,122,119,122,122,121,115,107,135,121,123,120,121,121,122,125,125,132,124,117,120,120,121,122,116,96,106,119,120,120,119,100,100,98,112,120,120,119,111,126,138,130,122,122,125,126,129,111,118,131,124,121,118,120,110,107,118,118,120,121,123,125,119,133,125,122,127,120,120,120,121,112,120,118,111,120,131,123,123,129,122,123,122,122,118,123,122,108,117,119,120
117,117,120,122,121,119,119,118,123,133,125,123,117,124,125,121,119,116,113,116,133,116,121,121,120,122,130,121,112,116,118,119,123,120,120,123,140,139,140,125,119,119,119,137,118,112,102,116,121,124,122,123,116,106,118,118,119,119,118,111,138,133,122,117,121,122,123,131,123,101,125,121,122,122,126,121,125,134,145,129,119,121,120,120,113,115,79,111,121,121,121,121,121,127,138,123,118,110,119,119,118,111,109,115,121,120,121,120,121,118,126,121,122,120,111,124,126,133,129,124,120,118,124,119,118,117,121,120
121,125,118,122,122,121,121,119,120,114,119,119,116,115,114,118,121,112,118,127,130,130,128,124,120,126,125,119,117,120,122,121,121,121,121,122,129,127,135,124,120,121,121,122,134,120,106,121,122,122,122,121,116,135,129,123,122,122,121,130,103,116,121,123,121,119,120,127,120,114,127,121,123,122,121,125,118,140,140,126,122,122,121,121,117,128,112,124,120,119,119,121,98,113,119,118,120,121,121,121,121,130,127,122,121,124,122,129,128,124,123,122,120,126,123,120,118,118,120,120,117,128,125,123,116,119,114,117
123,117,126,122,136,124,124,124,115,111,115,119,124,121,120,114,119,120,123,122,111,114,122,121,122,121,120,122,108,129,124,122,121,119,144,124,123,117,122,122,122,121,119,120,122,125,126,121,119,121,119,121,121,113,115,119,120,122,120,123,110,114,116,120,120,121,121,113,129,123,129,122,120,119,116,123,117,122,127,121,121,123,123,131,134,112,106,123,118,120,120,124,109,128,128,112,122,123,121,119,113,111,123,121,121,121,123,121,109,131,126,121,120,120,116,119,119,124,121,121,122,130,126,122,114,115,121,121
121,123,126,117,110,119,121,120,123,132,118,132,127,126,124,123,120,123,123,119,124,114,120,121,121,120,119,120,117,121,122,120,121,122,121,125,116,119,119,121,120,122,122,123,142,113,117,120,123,122,122,121,129,125,125,122,119,116,119,122,123,135,124,120,121,125,121,120,105,112,118,121,121,122,120,122,128,125,121,123,124,122,124,127,108,119,120,116,119,119,118,124,136,131,115,115,122,122,121,111,114,124,131,126,121,122,121,125,128,125,122,121,121,122,120,116,117,122,125,121,120,113,119,125,130,124,125,119
122,120,120,121,111,114,118,122,120,122,123,120,129,127,127,121,120,116,119,121,122,115,118,120,121,123,121,127,112,119,123,121,122,124,122,122,120,125,120,122,120,118,119,119,121,116,124,121,119,120,122,121,118,120,116,119,123,138,121,124,119,128,122,122,117,118,120,120,127,125,127,117,120,128,122,130,122,119,115,119,119,100,118,122,118,118,124,120,118,119,116,117,115,120,119,121,121,117,121,128,125,126,129,122,119,120,119,119,122,138,116,116,119,120,120,125,121,86,92,108,122,122,121,120,129,136,141,127
121,123,122,133,117,131,123,122,120,121,121,123,122,118,116,117,119,121,121,123,118,120,115,119,121,122,121,112,97,119,125,122,121,119,114,119,126,132,122,122,121,123,126,122,107,108,120,119,121,127,119,123,139,128,122,120,120,118,120,121,122,113,118,119,121,130,124,120,122,124,131,121,120,120,122,122,128,124,119,122,121,119,122,124,124,117,113,118,121,116,118,119,116,108,122,121,122,123,118,118,118,129,126,122,119,116,121,129,124,132,124,121,121,121,122,124,108,109,121,122,120,122,121,118,144,118,112,120
119,121,121,125,128,129,119,114,120,122,120,119,111,115,110,119,120,122,120,121,120,135,132,120,121,121,119,123,114,97,121,122,121,121,124,127,137,142,122,120,122,120,121,121,114,114,122,122,120,117,119,121,119,119,119,119,121,123,121,122,127,122,121,119,119,120,119,119,115,121,122,122,121,114,121,121,126,121,120,120,121,123,124,124,114,116,121,120,121,117,122,124,120,125,123,121,121,119,120,120,105,120,122,121,124,129,127,128,127,121,121,122,119,117,119,121,106,126,123,122,122,123,122,115,133,124,134,125
120,122,121,123,126,120,97,118,121,123,122,124,110,120,131,122,122,122,122,121,122,125,143,129,117,120,120,123,146,120,100,106,120,121,120,121,117,122,113,116,123,122,124,123,117,114,135,126,121,122,120,126,123,134,121,121,120,122,124,124,123,126,124,121,120,121,118,119,118,123,120,120,120,114,121,122,132,120,119,119,121,124,118,123,125,124,123,121,120,126,119,119,107,119,120,119,120,120,120,122,135,122,121,120,121,118,117,116,100,122,122,121,119,120,116,124,109,119,121,120,121,123,122,119,113,117,123,121
120,123,123,120,97,129,123,121,121,123,122,121,127,117,121,121,121,120,122,125,137,132,131,122,121,122,121,121,120,123,125,122,120,120,120,120,125,116,111,120,121,118,124,117,92,122,125,121,121,127,121,119,114,121,126,122,120,118,120,123,126,123,122,120,121,123,121,119,116,121,122,121,120,120,124,122,112,120,120,121,120,122,122,122,143,117,116,115,121,118,119,122,118,120,125,122,120,123,121,120,123,121,120,120,121,129,126,119,105,123,119,119,121,119,118,121,134,128,122,120,123,124,124,132,129,127,120,122
120,120,129,122,116,101,123,119,120,122,119,120,127,129,126,120,122,123,122,120,116,120,119,124,121,122,121,127,117,118,126,118,119,120,120,119,117,113,106,112,121,119,121,128,127,126,130,124,121,121,117,121,114,117,123,122,120,120,122,121,120,124,121,119,120,124,122,120,115,118,121,118,118,115,118,121,120,121,121,121,120,121,121,122,124,124,121,118,121,134,123,121,119,127,117,120,122,122,119,130,136,121,127,123,119,129,128,123,123,126,123,121,121,120,119,118,111,117,119,120,120,122,122,124,126,128,121,121
120,121,120,121,112,120,123,120,120,121,120,119,131,124,113,119,120,120,120,124,124,117,125,121,122,122,123,121,119,117,123,122,120,122,118,121,123,122,122,120,122,121,121,115,109,122,140,124,121,122,123,125,131,112,102,120,120,122,122,121,129,129,128,122,120,121,121,122,118,117,123,122,120,121,122,121,109,115,124,121,120,119,119,119,118,117,116,118,121,122,123,130,120,136,122,118,119,120,118,123,147,124,124,119,121,123,123,128,134,118,119,119,120,119,121,123,122,123,121,120,121,123,120,120,112,120,125,121
121,122,123,122,121,122,125,123,119,114,122,118,132,106,106,115,123,121,116,120,109,127,125,122,119,114,120,125,118,125,126,121,121,122,121,121,118,108,122,122,121,122,122,122,118,126,120,122,121,122,121,122,119,113,125,122,120,122,122,123,127,134,109,122,120,120,119,121,124,119,123,118,121,122,121,122,118,119,123,121,122,122,120,120,122,125,124,122,121,122,122,123,114,98,120,121,121,121,121,124,125,113,121,121,121,122,121,118,115,125,128,124,119,120,120,123,133,105,109,113,121,132,123,116,117,129,128,124
120,116,122,124,139,126,127,122,120,122,121,116,110,119,119,121,120,122,121,124,109,117,122,120,120,119,119,113,116,115,114,116,121,115,120,122,126,123,123,122,120,124,103,119,131,122,123,121,120,119,122,124,117,121,122,122,121,122,121,117,114,118,122,118,120,121,120,122,138,129,127,119,121,122,119,123,131,111,110,120,121,122,120,119,116,122,127,123,121,122,120,121,123,117,123,122,121,122,122,123,121,128,129,122,120,121,121,122,125,128,109,118,120,122,121,123,116,108,124,119,121,122,121,120,107,114,125,122
118,119,118,121,122,129,115,118,122,123,122,121,111,115,125,122,119,120,121,123,124,104,95,113,120,108,110,120,116,120,132,123,120,130,117,119,112,111,123,121,122,120,124,121,127,133,123,122,119,117,120,121,112,105,119,119,121,132,121,122,122,125,119,119,120,105,120,119,110,120,120,120,119,125,122,126,146,142,126,119,119,131,116,102,83,120,118,119,120,118,120,124,122,129,126,121,120,120,120,127,116,118,109,111,121,129,120,125,114,125,129,121,118,116,117,125,122,119,118,120,120,117,121,118,105,118,118,119
122,126,124,122,124,111,120,122,121,121,118,117,106,118,124,118,120,123,122,124,121,105,118,122,119,119,118,118,112,121,124,116,122,122,124,124,123,122,125,123,118,113,111,121,124,123,123,118,121,123,122,120,141,122,122,123,120,119,119,111,117,117,106,115,119,119,121,121,120,127,131,121,120,120,122,121,114,117,118,123,120,122,121,122,121,128,125,117,122,116,117,121,115,121,123,123,120,122,124,120,128,122,122,120,121,123,123,123,119,109,121,121,122,110,115,115,142,125,119,122,120,122,117,120,119,126,123,120
121,128,128,120,104,122,121,119,120,118,119,113,123,125,122,121,120,122,122,128,137,120,120,120,120,123,120,123,120,123,123,121,122,122,119,120,123,116,121,122,121,117,118,122,123,120,128,122,120,124,123,120,139,125,109,120,119,120,120,118,111,119,121,115,120,127,121,128,140,128,128,121,120,128,119,123,120,127,121,122,124,114,114,118,116,122,122,121,101,119,144,122,118,117,120,119,123,115,110,120,114,124,122,120,121,116,119,123,116,122,122,122,114,119,107,121,133,122,122,119,120,113,121,120,112,120,120,119
119,119,119,122,124,120,122,120,122,124,117,128,144,126,121,119,120,126,122,116,97,122,123,121,120,111,115,124,130,119,131,123,120,120,119,120,127,128,121,121,118,121,122,122,107,115,112,110,121,121,118,117,111,125,131,123,121,123,123,123,114,116,125,123,120,121,121,122,95,126,121,120,121,121,122,123,138,126,126,121,120,123,120,115,111,121,114,117,119,120,124,123,134,114,121,121,120,119,119,121,119,119,120,120,121,131,125,119,117,117,119,120,121,123,124,128,124,124,123,121,120,122,120,111,103,119,127,121
121,120,123,136,126,109,112,121,120,118,120,125,131,129,126,121,123,124,122,126,141,125,123,121,121,118,122,122,113,115,121,120,122,121,121,123,125,127,126,120,120,118,117,124,103,125,116,119,122,123,115,123,129,112,121,122,121,120,117,122,124,126,124,121,120,122,124,125,128,134,122,120,121,122,121,123,123,125,122,121,121,123,125,122,117,109,123,121,119,121,120,110,122,135,106,113,120,121,122,124,113,115,120,118,120,121,120,115,109,111,123,120,121,123,122,124,131,131,124,121,119,119,120,122,115,119,122,120
121,122,123,119,117,118,122,120,120,121,122,122,110,126,116,120,122,121,119,120,121,124,125,122,121,120,121,122,123,116,119,119,121,119,122,122,133,126,123,120,125,139,135,119,113,113,118,120,122,114,119,132,146,140,124,121,120,119,119,118,107,113,119,119,121,122,123,119,133,129,121,121,119,119,118,125,126,133,122,119,121,122,119,119,124,123,123,121,121,122,123,138,172,118,119,120,120,121,118,116,95,126,122,121,121,121,121,123,124,125,125,122,121,121,117,118,112,116,119,119,121,123,123,126,134,125,123,122
121,125,120,121,130,114,119,120,122,129,124,125,123,123,123,121,121,118,121,121,122,122,121,121,120,114,116,120,122,122,120,120,120,122,116,119,124,109,121,121,118,116,114,121,127,132,123,121,121,122,123,129,117,119,121,120,122,122,121,132,110,112,118,120,121,123,123,122,119,122,122,121,120,131,142,112,113,114,119,120,120,119,121,127,115,121,122,119,121,122,122,132,122,127,122,120,121,118,118,117,112,121,120,119,119,118,116,121,107,117,121,120,121,123,123,120,122,121,120,120,122,122,121,111,110,110,120,121
121,121,120,123,119,127,125,120,121,122,121,119,115,116,121,120,120,120,119,123,126,125,124,121,120,120,121,121,125,115,118,119,121,123,122,125,138,126,124,122,120,120,118,116,107,115,118,119,120,120,120,123,120,121,123,121,121,122,120,122,119,119,121,122,121,121,121,125,140,130,123,120,119,116,122,122,118,109,118,120,120,122,121,120,122,127,119,119,120,119,119,119,102,114,119,119,123,121,123,121,121,129,125,121,120,120,116,117,118,114,118,118,121,121,124,131,146,120,121,120,120,117,121,119,128,125,121,120
120,125,120,123,97,119,125,120,121,121,120,119,134,112,116,120,120,122,122,123,127,130,123,121,119,122,128,122,118,112,117,116,119,119,115,116,99,124,123,119,121,123,122,127,137,129,123,121,119,119,119,119,107,117,119,118,120,121,121,120,119,116,120,121,120,121,120,120,122,115,117,118,120,121,122,121,131,121,119,120,121,121,120,120,119,123,124,121,120,119,118,121,123,120,122,120,121,126,122,122,123,122,121,120,119,116,124,128,125,121,121,120,122,118,118,117,127,118,122,121,121,120,122,133,132,120,122,121
123,123,123,123,97,115,118,120,121,123,123,129,144,121,123,121,121,121,120,121,116,122,121,121,122,122,120,120,129,124,124,121,121,124,121,117,122,126,119,120,121,122,121,122,137,120,122,121,120,120,120,122,121,119,121,121,120,122,120,118,114,123,120,120,121,131,125,121,119,123,122,121,121,121,120,120,133,121,120,119,122,120,120,126,121,117,122,121,120,120,119,126,140,120,120,120,119,120,114,117,112,111,119,119,120,119,122,126,127,127,123,120,121,124,119,127,124,112,119,120,122,123,140,119,120,123,124,121
