120,121,121,121,121,121,121,120,120,121,121,122,121,122,122,120,121,122,120,121,120,121,121,120,121,122,121,121,121,121,121,121,120,120,120,122,121,121,122,121,121,122,121,122,120,121,122,121,120,120,120,121,121,121,122,121,120,121,121,122,121,121,121,119,122,123,121,121,121,121,122,121,118,119,120,122,122,121,121,120,120,122,121,122,121,120,121,120,122,123,121,122,121,121,121,121,121,121,120,121,121,121,121,120,121,122,122,121,120,121,121,120,121,122,121,121,120,121,121,120,121,122,122,121,120,121,121,120
121,122,120,121,121,120,121,120,119,120,120,122,121,120,120,119,122,121,121,121,121,121,121,121,120,123,121,122,120,120,121,120,120,121,122,122,122,121,121,120,120,122,121,122,121,122,122,120,121,122,121,121,120,121,121,121,120,121,121,121,120,120,121,120,121,122,122,121,121,122,121,121,121,121,120,122,121,121,121,121,121,122,120,122,121,121,121,121,120,121,120,122,121,121,122,120,121,121,120,121,121,121,121,121,121,121,121,121,120,120,121,120,121,122,121,122,121,121,121,120,120,121,121,122,121,120,120,119
120,119,119,121,121,121,122,121,120,123,122,122,122,122,122,120,121,121,120,121,121,121,121,120,121,122,122,122,121,121,121,120,120,120,119,121,121,121,121,120,121,122,121,122,121,121,122,120,121,123,121,121,121,121,122,120,120,123,121,122,121,122,122,120,119,120,121,122,121,120,121,120,121,122,120,121,121,121,121,120,121,122,120,121,121,121,122,121,121,121,120,121,121,121,121,120,121,122,121,121,121,121,121,121,119,120,120,122,121,121,122,120,122,122,121,122,121,122,122,120,121,122,121,121,121,121,121,122
119,120,121,122,122,121,121,118,120,121,120,121,121,121,121,121,122,122,121,122,121,121,121,121,120,120,120,121,121,121,122,121,121,122,120,121,121,121,122,121,120,121,121,122,121,121,121,120,121,122,121,122,120,120,121,120,121,120,122,122,122,122,121,120,121,121,120,121,121,121,122,120,120,122,121,122,122,121,120,120,121,122,121,121,120,121,121,120,121,122,122,122,121,121,122,121,121,122,120,121,121,121,121,121,121,121,120,121,121,121,122,120,121,122,121,122,120,120,121,121,120,122,120,121,121,121,121,120
119,120,121,121,121,121,121,119,120,122,120,122,122,121,122,121,121,122,121,121,121,121,121,121,120,122,121,122,121,121,121,120,120,122,121,122,122,121,120,119,118,119,121,121,120,120,121,120,121,122,121,122,121,121,121,120,121,123,121,122,121,120,121,121,121,122,122,122,121,121,121,121,121,122,120,121,121,121,121,121,121,122,121,121,121,120,121,120,120,121,122,122,122,121,121,120,120,121,120,121,120,121,121,120,121,121,120,121,121,121,121,121,121,121,121,122,121,121,121,121,120,121,120,122,121,121,122,121
121,121,121,121,121,121,122,121,121,121,121,122,122,121,122,120,120,121,120,121,121,122,121,120,120,121,122,122,121,120,121,120,121,121,120,122,121,122,121,120,121,122,122,123,122,121,121,121,120,121,120,122,121,122,122,120,122,122,121,122,121,121,121,121,120,121,120,121,121,121,121,120,120,120,120,121,121,121,122,121,121,122,121,121,120,121,121,121,121,121,120,122,121,121,121,120,121,122,120,122,121,121,122,120,121,121,121,122,122,121,121,120,121,121,121,122,122,122,122,120,120,121,120,121,120,121,121,121
120,121,121,122,121,121,122,121,121,122,120,121,121,121,122,121,121,122,122,122,121,121,121,120,121,122,121,122,122,122,122,120,120,121,120,121,120,121,121,121,121,122,121,121,121,121,122,120,119,120,121,122,121,121,120,120,121,122,122,122,121,122,121,121,121,122,122,122,121,120,121,121,121,122,121,121,121,121,121,120,120,122,121,121,120,121,121,121,121,123,121,121,120,121,121,120,119,120,120,121,121,121,122,121,121,121,120,121,121,121,121,120,122,122,121,121,121,121,122,120,120,121,121,122,121,121,122,121
120,121,121,122,121,121,121,120,121,122,121,121,121,120,121,121,121,120,120,121,121,121,122,120,120,122,121,121,120,120,120,120,121,121,121,122,121,122,122,121,121,122,121,122,121,120,121,121,121,121,120,121,121,121,121,121,121,123,122,121,120,121,121,120,120,121,121,122,121,121,122,120,120,121,120,121,121,121,121,121,120,121,121,121,120,121,121,120,121,121,121,121,121,121,121,121,121,122,121,122,120,121,121,120,121,123,121,122,120,120,121,121,120,121,121,122,120,121,121,120,120,120,120,121,121,121,121,120
121,122,120,121,121,121,121,122,122,123,122,122,121,121,122,121,120,121,120,121,122,122,122,121,120,122,120,121,120,120,121,120,121,122,121,122,121,120,121,120,121,122,122,123,122,121,122,121,121,122,121,121,120,120,121,120,121,122,121,121,120,121,121,120,121,122,121,121,121,121,121,120,121,122,121,121,121,121,121,121,120,121,121,122,122,121,121,119,120,120,120,121,121,121,122,120,121,122,121,121,121,120,122,121,120,121,120,121,120,121,121,121,121,121,121,122,122,122,120,120,121,121,121,121,121,121,121,121
121,121,120,121,121,120,122,121,121,121,120,121,121,121,122,121,121,123,121,121,120,121,121,120,119,120,120,122,121,121,121,120,120,121,120,121,121,121,121,120,121,121,120,121,121,121,122,121,119,119,120,122,122,122,121,120,121,122,121,122,121,121,122,121,120,121,121,122,121,121,121,120,121,122,121,121,121,121,122,121,121,121,120,122,121,121,121,121,120,121,121,122,121,120,121,120,120,121,121,121,121,120,121,119,121,121,120,122,121,121,122,121,121,122,121,121,121,121,121,122,121,122,121,121,121,121,121,121
120,122,121,121,121,121,121,119,119,120,120,121,121,120,120,119,121,122,121,121,120,121,121,120,121,122,121,121,121,120,121,121,122,121,121,122,122,122,122,120,120,121,121,122,121,121,122,120,120,121,120,121,120,120,120,119,122,122,121,122,121,121,122,121,120,121,121,121,121,121,121,121,121,121,121,122,121,120,121,120,121,122,120,122,121,121,121,120,121,122,120,121,121,121,121,120,120,121,120,121,121,121,122,121,121,122,122,123,122,121,122,120,119,121,121,122,121,121,121,119,120,119,119,121,121,121,121,120
122,123,121,121,120,121,121,121,121,123,122,123,122,122,122,122,121,122,121,121,120,121,121,120,120,122,121,122,121,120,121,120,121,122,121,122,120,120,121,120,120,122,121,121,121,121,121,120,120,121,121,122,122,121,121,121,121,121,121,122,121,121,122,120,121,122,122,122,120,121,122,120,121,122,122,122,120,120,121,121,120,121,121,122,120,120,121,121,120,122,121,121,120,120,120,120,121,122,121,121,120,121,121,121,120,121,121,122,121,121,122,120,120,122,121,122,121,121,122,120,120,121,121,122,122,122,122,120
120,122,121,122,121,120,121,120,120,119,120,122,121,121,122,121,121,123,121,121,120,120,121,121,121,122,121,122,122,121,122,120,121,122,121,122,121,120,120,120,119,121,122,122,122,121,120,119,121,121,121,121,121,121,121,121,121,121,120,121,121,121,121,120,121,121,120,121,121,121,122,120,120,121,120,122,122,121,121,120,121,121,121,122,121,120,121,121,119,119,120,122,121,121,121,121,121,122,121,121,121,121,121,120,121,122,121,121,121,121,122,121,121,121,120,121,121,121,121,121,119,120,121,122,121,121,122,118
121,122,121,123,122,121,121,121,121,122,120,121,121,121,122,121,121,122,121,121,121,122,121,121,120,121,120,122,121,121,122,120,120,122,121,121,120,120,121,120,121,121,121,121,121,121,121,121,121,122,122,122,121,120,120,120,121,122,121,121,121,121,121,121,120,121,121,121,120,120,121,120,120,122,121,123,122,121,121,120,121,121,120,121,121,121,122,121,121,122,121,122,121,121,120,120,120,121,121,122,122,121,121,120,121,123,121,121,121,121,121,121,120,120,119,121,121,121,121,119,121,122,121,121,120,121,121,119
122,122,121,122,121,121,122,121,120,121,121,122,122,122,122,121,120,122,122,122,122,121,121,121,121,122,121,121,120,121,121,121,121,122,122,123,121,121,121,120,118,119,120,121,121,121,121,120,121,121,121,121,120,120,121,120,121,122,122,123,121,120,120,121,120,121,120,122,121,121,122,120,121,122,121,121,121,121,122,121,120,120,120,121,121,121,122,121,121,122,121,122,121,122,122,121,120,122,121,121,122,121,122,120,120,121,121,122,121,122,121,120,120,119,120,122,121,121,121,120,121,122,120,121,121,121,121,121
121,121,120,122,121,121,122,121,121,122,121,122,121,121,122,121,120,121,121,122,120,121,121,120,120,121,121,121,120,121,121,120,120,123,121,121,121,120,121,121,121,122,121,121,120,120,121,120,120,121,121,122,122,122,121,119,121,122,122,122,120,121,121,120,120,121,121,121,120,120,121,121,121,122,121,121,120,121,121,120,120,121,120,121,121,122,122,121,121,122,122,122,121,121,121,120,122,122,122,122,121,121,122,122,121,123,121,122,121,120,120,120,120,121,121,122,120,120,121,120,121,122,120,121,121,121,122,121
121,122,122,122,120,120,121,120,121,122,120,121,121,121,121,121,119,120,120,121,121,121,121,121,121,121,120,121,121,121,120,120,121,121,121,123,122,120,121,120,121,122,121,122,121,121,122,121,119,119,119,121,121,121,122,120,120,121,120,121,120,121,121,120,121,121,121,122,121,121,122,121,121,123,122,123,122,121,122,122,121,122,120,121,121,121,122,120,120,121,121,122,122,120,121,120,121,121,120,121,121,121,121,120,121,122,120,122,122,121,122,121,121,123,121,121,121,121,121,120,121,122,120,121,121,121,121,120
120,121,120,121,121,121,122,121,120,120,121,122,122,121,121,120,121,122,121,122,120,121,121,120,121,122,121,121,121,121,121,120,121,121,121,122,120,120,122,121,121,122,121,121,121,121,121,120,120,121,121,122,122,121,121,120,121,121,121,121,121,121,122,121,121,122,121,122,120,120,121,121,120,120,120,121,120,121,121,120,120,122,121,122,121,121,121,120,120,119,120,121,121,121,122,120,120,121,121,121,120,120,121,119,121,123,122,121,120,120,120,120,121,122,121,122,121,121,121,121,121,122,121,122,122,122,121,120
121,121,121,121,121,121,122,121,121,122,121,121,121,120,122,121,121,122,121,121,120,121,121,121,121,121,121,122,121,121,122,121,120,121,121,121,121,121,121,120,121,122,120,121,121,121,121,121,121,122,120,121,121,121,121,121,120,122,121,122,121,120,121,120,121,121,120,121,121,121,121,120,121,121,121,121,121,121,122,120,120,122,120,121,121,121,122,121,121,121,121,121,120,121,120,121,122,123,121,122,121,122,122,120,121,122,121,121,121,120,121,120,121,121,121,121,120,120,120,120,121,122,120,121,121,121,121,121
121,122,121,121,121,121,122,121,121,122,122,122,121,121,121,120,120,121,121,121,121,120,121,121,120,121,121,121,120,120,121,120,121,122,121,122,121,122,121,120,121,121,121,122,121,122,122,120,120,121,121,122,121,121,121,121,121,121,121,121,121,121,121,121,121,122,121,121,121,120,121,121,120,121,121,122,121,120,121,120,120,121,121,121,121,122,122,120,121,123,121,121,120,121,121,120,121,121,121,121,121,121,122,121,121,122,120,122,121,121,122,120,121,123,122,122,120,121,121,121,121,122,122,122,120,121,121,121
120,121,120,120,121,121,121,120,121,120,120,121,121,121,122,121,121,122,122,122,121,122,121,120,121,122,121,122,121,121,120,120,121,122,120,121,121,120,121,121,121,121,121,121,120,120,122,120,120,123,122,122,121,121,121,121,120,121,121,122,120,120,120,120,121,122,120,121,121,121,121,120,121,122,121,121,120,121,121,121,121,122,121,121,120,121,121,121,121,122,120,122,121,121,122,120,120,122,121,121,120,121,121,121,120,120,120,122,121,121,122,120,121,122,121,121,120,121,121,120,121,121,120,121,121,121,121,120
122,122,121,121,121,121,122,121,120,121,120,122,121,121,121,120,120,121,120,120,120,120,121,120,121,122,121,123,121,121,122,121,121,122,121,121,121,121,122,121,120,121,121,122,121,120,120,119,120,120,120,121,121,121,121,121,121,122,122,122,121,121,121,121,121,121,120,121,121,121,122,120,120,121,120,122,121,122,122,120,120,120,121,121,120,121,121,120,121,122,121,121,120,121,121,120,121,122,120,121,121,121,121,120,120,121,121,121,120,121,121,121,121,123,121,121,120,121,121,121,121,122,121,121,121,121,121,120
120,121,121,122,121,120,121,121,119,120,121,122,121,121,122,120,121,122,121,122,120,121,122,120,121,122,121,122,120,120,121,120,121,122,122,122,121,121,121,120,121,122,121,121,121,121,121,122,121,121,121,122,121,121,121,120,120,122,121,121,120,121,122,120,121,122,121,122,122,122,122,119,121,122,120,121,121,121,121,121,121,122,120,121,121,121,122,120,120,121,120,121,121,121,121,121,121,122,120,121,121,121,122,121,120,121,121,122,122,121,121,119,120,121,121,121,120,121,121,120,120,121,119,121,121,121,121,121
121,122,121,121,121,121,121,121,120,121,121,122,122,122,122,121,121,122,121,122,122,121,121,121,121,122,121,121,121,121,122,120,119,120,121,122,122,121,120,120,121,122,120,122,122,121,122,120,120,121,121,121,120,120,121,120,121,121,121,122,121,120,121,121,122,124,121,121,121,121,121,121,121,121,120,121,121,121,122,121,121,121,121,121,121,121,122,121,120,121,120,121,120,121,120,120,121,122,121,121,120,120,121,120,121,122,122,122,121,121,122,121,120,121,121,122,121,121,121,119,120,122,120,121,121,121,122,121
121,121,120,121,121,121,121,121,120,121,121,122,120,120,121,120,120,121,121,122,121,121,122,120,121,121,121,122,121,121,122,120,121,121,121,121,121,121,122,121,120,120,120,121,121,121,121,120,122,124,121,121,120,121,122,122,120,119,121,122,122,122,121,120,120,121,120,120,120,120,121,120,121,122,121,122,121,122,121,120,120,122,121,122,121,122,121,120,121,122,121,122,121,122,121,121,120,120,121,121,121,121,122,120,121,122,121,122,120,120,121,120,121,122,122,121,120,121,120,120,120,122,121,122,121,120,120,120
121,122,121,121,120,121,121,120,121,122,121,121,120,121,121,121,119,119,119,121,121,121,121,119,121,122,121,121,120,121,121,120,121,122,121,122,122,121,121,119,120,121,121,122,121,121,122,121,121,122,121,121,120,121,121,121,121,120,120,121,121,121,122,121,120,121,120,122,122,121,122,120,121,122,121,121,120,120,121,120,120,122,121,122,121,121,121,120,121,122,121,121,121,121,121,120,121,122,121,121,120,120,121,120,120,121,121,121,121,121,122,120,120,120,120,121,121,121,121,120,121,122,122,122,120,121,121,121
121,121,120,121,121,121,121,121,121,121,121,122,121,120,121,121,120,122,121,122,121,121,121,120,120,121,121,121,120,121,121,119,120,122,121,121,120,120,121,120,121,123,122,122,122,121,122,120,121,122,121,121,121,122,121,121,120,121,120,121,120,121,121,121,121,122,120,121,120,121,122,121,121,122,121,121,121,120,121,120,120,122,121,122,122,121,120,120,120,120,120,121,121,121,122,120,120,121,120,122,121,122,122,120,121,122,122,121,120,121,121,120,121,122,121,123,121,120,120,120,120,121,120,120,121,120,121,121
121,122,121,122,120,120,121,120,121,121,120,121,121,121,121,120,120,122,122,122,122,121,121,121,121,122,120,121,121,121,122,120,121,121,121,121,121,121,121,119,121,122,122,122,120,120,121,120,120,121,120,121,121,122,121,120,121,122,122,122,121,121,121,121,120,122,121,122,121,121,121,120,120,122,122,123,121,120,121,120,120,121,122,122,121,120,120,120,121,121,120,122,122,122,122,119,120,122,121,122,122,121,122,120,121,122,121,121,121,121,121,121,120,122,121,122,121,120,121,120,120,121,120,121,120,120,121,120
121,121,121,122,121,121,122,121,121,122,121,122,121,121,120,120,120,120,120,122,122,122,121,120,120,121,121,122,121,121,121,120,121,122,122,122,120,120,121,121,121,121,121,122,122,121,121,120,120,121,120,121,121,121,121,121,120,123,121,121,121,120,121,121,121,122,121,122,122,122,122,121,121,122,121,122,121,120,121,120,121,122,121,121,121,121,121,120,121,121,120,121,121,121,121,121,119,121,121,122,121,121,121,120,120,121,120,121,121,120,121,120,120,122,121,122,122,120,121,119,121,121,120,121,121,122,121,121
121,122,121,121,121,121,121,121,121,121,120,122,121,121,122,121,121,122,122,122,121,120,121,120,120,121,121,122,121,120,121,120,120,121,121,121,121,121,121,120,122,122,121,122,121,122,122,121,121,122,121,121,120,121,121,121,120,120,121,122,120,120,120,120,120,121,121,122,121,121,121,120,121,122,121,121,121,121,122,121,120,120,121,122,121,121,122,120,121,121,120,121,121,121,122,121,120,121,121,122,121,120,120,120,120,122,122,121,120,121,121,121,121,122,121,122,120,121,121,120,121,122,121,121,120,121,121,120
121,122,121,122,121,120,121,119,120,121,120,121,121,121,122,121,121,121,121,122,122,122,121,120,120,122,121,122,120,120,120,120,121,122,121,122,121,120,121,120,119,121,122,122,121,120,121,120,121,121,120,121,121,121,121,121,121,122,122,122,121,121,121,121,121,121,120,122,121,121,121,121,120,119,121,122,121,121,122,120,121,122,120,122,121,121,122,119,119,120,120,121,121,121,121,120,121,121,120,121,121,121,122,121,120,121,121,122,121,121,122,121,121,121,120,121,121,121,121,121,120,120,120,121,121,121,122,121
120,121,121,122,121,121,121,119,120,121,120,121,121,121,122,121,121,122,121,122,122,121,122,120,121,122,121,121,121,121,121,120,120,121,121,122,121,122,121,120,121,122,120,121,121,121,122,121,120,120,120,121,121,121,121,121,121,122,120,121,121,121,122,120,121,122,122,122,121,122,122,121,121,122,121,121,121,121,121,121,119,120,121,122,120,120,120,120,121,122,122,122,121,121,121,121,121,122,121,121,121,121,121,120,120,121,121,122,121,121,122,120,120,121,121,121,120,121,121,121,121,122,120,121,121,121,121,121
121,122,121,121,120,121,121,120,121,122,122,122,122,120,122,121,121,121,121,122,120,120,121,120,120,123,122,121,120,120,121,120,121,121,120,121,121,121,122,120,122,122,121,122,122,121,121,120,121,121,120,121,121,121,121,120,121,122,122,122,120,120,120,120,120,121,121,122,121,121,122,120,121,123,121,121,121,120,121,120,121,122,121,121,120,121,121,121,121,121,120,122,121,121,122,121,121,122,121,121,121,120,121,120,120,122,122,122,122,121,121,119,120,122,121,122,120,120,121,119,121,121,120,121,121,121,121,121
121,122,121,121,121,121,121,120,120,121,121,122,121,121,122,121,120,121,121,122,121,121,122,120,120,122,121,122,121,120,121,120,121,121,120,121,121,121,122,121,121,121,121,121,121,121,122,121,121,122,120,121,121,120,121,121,121,122,122,123,122,121,121,120,121,120,120,121,121,121,122,121,120,121,120,122,121,122,122,120,121,123,121,121,121,121,121,120,121,123,122,122,121,121,121,121,121,121,121,122,120,121,121,121,120,121,121,122,121,121,122,120,121,122,121,121,120,121,121,120,119,120,121,122,121,121,120,119
121,121,120,121,121,121,122,121,119,120,120,122,121,121,122,120,121,122,121,121,121,121,122,120,120,120,120,122,121,121,122,121,120,121,121,123,122,122,122,121,119,120,121,122,121,121,121,120,119,120,121,122,121,121,121,120,121,122,121,121,121,121,122,121,121,121,121,121,121,121,122,121,121,122,120,121,121,121,121,120,120,121,120,122,121,121,122,120,120,121,120,121,121,121,121,120,121,122,121,121,120,121,121,121,120,122,121,122,121,121,121,120,121,122,120,121,121,121,121,121,120,120,119,121,121,121,121,120
121,121,120,121,121,121,122,121,121,122,121,121,121,121,121,121,121,121,119,121,121,121,121,120,121,122,122,121,121,120,121,121,120,121,121,121,121,121,121,120,121,121,121,122,122,121,122,121,121,122,121,121,120,121,122,121,121,124,121,121,120,120,121,120,121,120,120,121,121,121,122,120,120,121,120,121,121,121,121,120,121,121,120,122,121,121,121,121,121,121,121,122,121,120,121,120,120,122,121,122,121,122,122,120,121,122,120,121,121,121,121,120,120,121,120,121,121,121,121,121,120,121,121,122,121,121,121,120
120,122,121,122,121,122,122,121,121,122,120,121,121,121,121,121,121,122,121,122,122,121,121,119,120,120,120,121,121,121,121,120,121,122,121,121,120,121,122,120,121,122,121,121,121,121,121,121,121,121,121,121,120,120,121,120,121,120,121,122,122,122,122,120,120,122,121,120,121,121,121,121,120,122,121,121,120,121,121,119,120,121,120,121,121,121,122,121,121,122,121,122,122,122,122,121,120,121,120,122,121,121,122,121,120,122,121,121,120,121,121,121,121,122,121,122,121,120,121,121,120,121,120,122,121,121,122,120
121,122,120,121,121,121,121,121,120,122,121,122,122,121,121,120,121,123,122,121,120,121,121,121,120,121,121,122,121,121,121,119,120,121,121,122,122,122,122,120,119,119,121,122,121,121,121,119,121,121,120,121,121,121,121,121,121,122,121,121,121,121,122,121,121,122,120,121,122,122,122,120,121,121,121,121,120,121,121,121,121,122,121,121,121,122,121,121,120,121,121,122,121,121,122,121,121,122,120,121,121,121,122,121,121,121,120,121,121,121,122,120,120,122,121,122,121,121,120,120,121,121,120,121,120,121,121,121
121,122,121,121,120,121,121,121,121,122,121,121,121,121,121,121,120,123,122,122,121,120,121,120,120,119,121,122,121,121,120,120,121,121,120,121,121,121,121,121,122,122,122,123,122,122,121,120,121,121,120,121,121,121,122,120,120,122,122,122,121,120,120,120,120,121,121,121,120,121,121,120,121,121,121,121,120,120,121,120,121,122,121,122,120,120,121,120,121,121,121,121,121,121,121,121,121,122,120,121,120,121,122,120,120,121,120,122,121,121,122,121,121,122,121,121,120,121,121,121,121,121,120,121,121,120,121,120
121,122,121,122,122,121,121,120,121,123,121,121,120,121,121,121,119,120,121,122,121,121,120,121,121,121,120,121,121,121,121,120,121,122,121,122,121,120,121,121,121,122,121,121,120,121,121,121,120,120,121,122,121,121,122,120,121,123,122,122,122,122,122,121,121,123,122,121,120,120,121,121,120,120,121,122,122,121,121,120,120,122,121,121,121,120,121,119,121,122,121,122,121,122,121,121,121,122,121,121,120,120,121,120,121,122,121,121,120,121,121,121,121,122,121,122,121,120,121,121,121,122,121,121,120,121,121,120
120,119,121,122,121,121,122,121,120,119,119,121,121,121,121,120,120,122,121,122,120,120,121,120,120,121,121,122,121,121,122,121,121,122,120,122,121,122,122,120,121,121,120,121,121,121,122,121,120,121,121,121,120,120,121,121,119,119,119,121,121,121,121,120,121,123,122,122,121,121,122,121,121,121,120,121,121,121,122,121,120,122,121,121,121,120,121,121,120,122,122,122,122,120,120,120,121,122,121,121,121,121,122,121,119,120,120,121,121,121,121,120,120,121,121,122,121,120,121,120,121,122,122,122,121,120,121,120
121,122,122,121,121,121,121,120,119,120,121,122,121,120,121,119,120,121,121,122,121,121,121,120,122,122,120,121,121,121,122,121,121,122,121,121,121,121,122,120,121,121,121,121,121,121,121,121,121,122,121,121,120,121,122,120,121,122,121,121,121,121,121,120,121,121,120,121,121,121,121,121,121,122,122,122,122,121,122,120,120,121,120,121,121,121,122,121,120,121,120,121,120,121,121,120,121,122,120,121,121,121,122,120,121,121,120,122,121,121,122,121,122,121,121,122,122,122,121,119,120,121,120,121,121,121,121,121
121,121,120,121,121,121,121,121,120,122,121,121,121,120,121,120,120,119,120,122,122,122,121,119,121,122,120,121,121,121,121,121,121,121,121,121,120,121,121,120,120,122,122,122,121,121,121,121,119,121,121,122,121,121,121,120,120,120,120,121,121,121,121,120,121,122,121,121,120,120,121,121,121,122,120,121,121,121,122,120,120,122,121,121,120,120,121,119,120,122,121,122,120,120,121,120,121,122,121,121,121,121,122,120,120,122,120,121,121,121,122,121,121,122,121,121,120,121,121,120,120,122,121,122,122,122,122,120
119,121,121,122,121,122,121,119,120,122,121,122,121,120,121,120,121,121,120,122,121,121,122,120,121,122,122,123,122,122,121,121,120,123,122,121,120,121,121,121,119,119,120,121,121,121,121,120,120,121,121,122,121,121,121,120,120,122,121,122,121,122,121,119,120,121,120,121,121,120,121,121,120,121,121,122,121,121,122,120,121,121,120,121,121,122,122,121,120,121,120,121,121,120,121,121,122,123,122,122,122,122,122,120,120,121,120,121,121,121,121,121,121,121,120,121,121,121,122,121,120,121,120,122,121,121,122,119
121,122,121,121,121,120,122,121,120,122,121,122,122,121,121,121,120,120,120,121,121,121,122,120,120,121,121,122,122,121,121,120,121,122,120,121,121,121,122,121,120,121,121,122,120,120,121,121,120,122,121,122,121,120,121,120,121,122,121,122,121,121,121,119,121,121,120,121,121,121,121,121,121,122,122,122,121,121,121,121,120,121,121,122,121,122,122,120,121,121,120,121,120,121,122,120,121,121,120,122,121,121,121,121,121,122,122,122,120,121,121,121,120,121,120,121,121,121,122,120,120,122,120,121,120,121,121,120
121,122,121,121,120,120,121,120,121,122,121,121,120,121,121,121,121,122,121,121,121,121,121,121,120,121,120,122,121,122,121,119,120,123,121,122,121,121,122,120,121,121,120,121,121,120,121,121,121,123,121,122,122,122,121,121,120,121,121,121,121,121,120,120,119,118,119,121,121,121,121,120,121,122,121,122,121,121,121,121,121,122,122,122,121,120,121,121,120,121,121,122,121,122,121,119,121,122,121,122,122,121,120,119,120,122,121,121,120,121,121,121,120,121,120,121,121,121,121,120,121,122,122,123,122,121,122,121
121,122,122,121,120,120,121,121,121,122,121,122,121,121,121,120,121,122,121,122,121,121,121,121,121,121,120,121,121,122,121,120,121,122,120,121,121,121,121,120,120,120,121,122,122,121,121,119,121,121,120,122,121,121,121,121,120,121,121,121,120,120,120,120,121,122,121,122,121,121,121,121,121,122,122,122,121,121,121,120,120,121,120,121,121,120,121,120,120,121,120,121,120,121,120,120,121,123,122,123,121,121,122,120,121,121,120,121,121,121,122,121,121,122,121,122,120,121,121,120,120,121,121,122,120,120,121,120
121,122,122,122,121,120,122,120,121,122,121,121,121,121,121,121,121,121,120,121,121,121,122,121,120,121,121,122,121,121,120,120,121,122,122,122,120,120,121,120,121,122,121,121,121,121,122,122,120,121,121,122,121,121,121,120,120,123,121,122,121,120,121,120,120,120,120,121,121,121,121,121,120,122,121,122,122,121,121,120,120,120,121,122,121,121,121,120,120,122,121,122,121,121,121,120,120,121,120,122,121,121,121,121,121,122,121,122,122,121,122,120,121,122,120,121,121,121,121,121,120,121,120,121,121,121,122,121
121,122,121,122,120,120,121,121,121,122,121,121,121,121,121,121,121,122,120,121,121,121,122,120,120,121,121,122,121,121,121,120,120,121,121,122,121,120,121,121,121,122,120,121,121,121,122,122,121,122,121,121,121,121,121,121,120,122,121,121,120,120,121,120,121,121,120,121,121,120,122,121,121,122,122,121,120,121,122,121,121,122,122,122,121,121,121,121,121,123,121,121,121,121,121,121,120,120,119,121,121,121,121,120,120,122,121,121,120,121,121,120,121,122,121,121,121,121,121,122,121,122,121,121,121,121,121,122
120,121,121,122,121,121,122,120,120,120,120,122,121,121,121,119,120,121,121,122,121,121,121,120,120,121,122,123,121,121,121,121,121,121,120,121,121,121,121,120,120,121,121,122,121,122,122,122,121,121,120,121,121,121,121,120,121,123,121,121,121,121,121,120,120,120,121,122,121,121,122,120,119,122,121,121,120,123,121,118,119,121,121,122,120,120,120,119,133,125,124,123,122,123,129,134,119,120,121,122,122,122,127,116,119,121,121,122,122,122,124,115,120,121,120,121,121,121,121,121,120,122,121,121,120,120,121,120
119,121,121,122,121,122,121,120,122,123,121,122,122,122,127,124,129,125,122,122,122,118,143,133,142,126,123,123,124,132,133,131,116,120,121,122,122,131,98,129,102,119,119,120,118,118,131,103,126,119,119,119,117,98,114,119,142,128,125,127,135,187,150,128,119,119,116,115,108,87,103,148,106,124,123,125,127,154,126,106,141,121,121,120,116,101,96,123,120,122,119,119,122,132,137,132,116,113,121,123,116,118,127,108,113,121,118,117,108,88,156,124,110,122,124,120,120,125,137,126,129,128,124,123,119,137,140,116
123,109,113,117,112,56,49,108,114,126,132,129,122,98,132,129,114,131,123,121,120,131,133,120,139,126,130,134,122,110,118,114,126,111,110,113,113,91,151,124,98,123,124,125,124,188,145,122,145,131,126,116,113,58,144,126,128,126,124,128,142,152,78,121,114,127,121,130,132,75,114,113,123,121,129,116,124,153,187,127,107,106,102,81,89,66,74,109,135,141,144,174,203,241,195,122,112,117,114,112,79,50,71,118,142,131,130,114,123,154,133,143,119,121,126,181,157,135,113,129,103,110,104,59,94,129,109,103
141,139,162,192,173,96,120,130,110,122,117,117,125,214,122,120,117,113,114,113,114,126,109,132,132,121,111,93,101,75,142,126,107,124,126,139,121,87,83,119,112,116,112,115,124,93,123,104,110,117,123,141,135,77,151,124,157,129,125,122,126,222,194,152,120,129,122,156,136,86,153,118,115,120,124,146,177,176,145,126,119,118,124,126,123,137,116,104,119,119,121,105,96,48,102,92,141,133,132,118,149,230,179,152,107,119,121,111,112,69,117,102,117,123,124,136,104,99,94,112,120,117,124,154,159,135,149,132
116,123,118,109,98,144,137,115,122,123,119,115,116,90,112,138,123,113,121,116,113,178,122,105,114,117,119,129,127,144,124,136,119,134,139,167,157,80,93,128,137,132,129,135,129,85,103,119,127,111,114,105,112,188,146,128,109,120,118,115,98,105,97,98,117,122,129,197,184,190,130,114,126,128,126,114,106,110,150,152,129,126,120,73,91,63,98,107,124,123,124,143,119,109,79,125,124,121,123,121,130,146,121,128,121,119,123,195,111,79,74,110,120,130,134,104,133,139,103,138,142,117,115,104,104,66,97,117
119,129,126,112,132,129,154,144,119,129,136,175,163,158,181,140,112,119,118,119,130,239,169,110,123,127,128,127,124,81,56,118,131,127,124,129,109,85,79,123,117,122,121,121,130,79,107,112,116,123,119,104,114,114,36,90,119,119,121,144,134,110,120,124,116,107,105,118,71,28,127,119,125,122,131,130,122,189,92,95,109,133,126,138,156,92,106,105,130,112,106,85,117,138,150,174,119,122,130,137,125,138,115,110,109,112,109,101,94,117,107,99,107,126,115,82,106,112,137,122,135,118,117,86,124,142,116,123
118,121,121,150,145,127,110,137,116,121,113,106,133,136,97,110,127,121,128,130,112,128,129,122,123,123,111,87,105,116,181,145,124,127,130,143,156,111,109,103,125,126,125,183,132,176,165,131,114,115,125,157,134,98,120,124,119,123,113,98,106,154,72,121,129,128,130,147,148,132,108,119,118,123,125,129,100,76,104,135,114,115,115,113,118,102,93,117,123,128,126,124,96,142,160,145,125,114,113,125,107,140,111,107,115,123,120,95,96,155,91,111,118,117,113,112,109,110,127,125,127,123,117,111,116,161,156,135
118,119,116,133,102,18,131,119,122,122,123,104,110,86,83,131,120,125,124,140,133,111,148,135,125,120,125,132,124,156,57,101,122,126,137,184,111,100,102,128,118,128,119,109,117,116,121,119,138,121,124,128,147,235,177,130,99,108,112,105,113,112,135,125,115,130,133,165,182,115,118,115,142,122,120,121,115,131,101,125,122,126,123,116,118,104,110,128,117,121,117,102,124,98,149,124,118,128,132,141,135,41,142,124,124,122,126,141,125,98,169,127,113,119,117,113,119,122,116,111,131,122,119,125,122,110,113,116
118,124,122,119,115,108,139,126,119,121,123,137,147,138,110,125,123,121,122,117,119,116,107,109,123,125,122,124,135,193,159,159,121,125,127,155,147,113,63,109,130,125,127,148,169,125,153,136,110,112,106,101,74,17,67,110,118,124,115,128,116,158,157,127,124,125,124,126,115,108,167,130,131,120,118,115,121,99,54,111,112,108,114,105,99,100,84,121,109,118,112,115,143,190,142,118,121,122,121,97,77,103,127,119,130,121,120,125,112,115,105,111,131,124,116,106,154,114,120,124,121,123,123,123,116,120,142,119
111,120,125,128,124,99,142,121,125,122,118,113,130,100,140,128,125,122,123,148,120,188,131,134,111,120,117,105,102,137,115,98,124,114,118,120,137,127,102,103,116,119,118,105,121,89,142,151,119,127,122,148,123,145,147,109,137,128,125,113,116,137,135,113,113,114,106,100,113,110,122,120,106,121,124,138,116,88,132,122,122,118,118,122,125,148,92,113,119,124,121,87,109,162,126,119,114,123,123,123,116,159,154,107,109,122,112,100,100,94,128,130,141,120,111,125,130,147,144,115,118,125,115,115,99,94,67,131
122,125,122,155,144,149,141,130,120,124,99,108,119,86,125,128,124,121,3,104,118,124,100,109,114,119,0,108,96,95,129,115,103,116,0,106,100,115,57,74,135,123,22,125,148,240,151,131,123,123,58,133,124,95,94,144,117,127,96,146,141,120,156,120,112,118,109,128,122,81,72,105,127,122,99,116,111,169,151,134,116,116,101,145,124,129,119,121,115,124,118,125,119,166,132,122,138,125,127,122,119,81,93,126,120,120,134,121,123,96,129,109,105,125,102,110,116,109,102,114,144,116,99,174,157,65,129,128
115,125,120,115,130,225,167,124,109,119,113,127,114,126,113,106,119,120,111,135,134,102,124,132,120,122,133,118,131,91,101,124,130,115,115,122,114,112,132,140,120,126,119,149,138,168,165,142,131,124,119,117,104,135,125,135,113,126,112,153,131,103,59,99,115,118,118,105,108,111,165,146,124,122,152,168,134,133,76,102,119,122,111,108,102,117,83,106,121,122,136,114,106,131,130,125,117,114,106,113,118,108,137,134,113,118,138,100,95,93,70,110,103,120,110,109,105,165,117,113,157,129,122,119,125,138,99,129
124,116,118,155,140,129,139,146,112,116,109,116,106,102,122,106,119,124,151,127,113,117,106,117,132,129,117,111,111,110,112,129,96,118,113,143,118,106,116,113,149,122,148,108,102,99,103,169,113,121,120,130,142,130,99,84,104,117,149,125,118,110,99,101,122,124,123,103,110,98,121,130,112,116,113,135,124,186,140,113,109,114,101,99,121,92,167,142,104,121,104,128,124,107,80,93,143,114,119,115,106,75,133,138,129,130,111,123,112,123,119,140,115,122,122,132,103,146,130,116,119,120,119,97,97,99,109,96
117,114,123,109,111,111,74,112,114,116,115,105,111,114,100,112,122,128,113,126,120,139,132,125,117,122,110,119,140,81,97,114,121,119,130,114,109,175,149,124,115,106,144,101,102,58,97,108,127,123,106,106,102,99,104,117,115,128,132,142,142,93,128,132,119,119,137,155,122,122,126,101,119,124,121,153,121,111,130,133,105,103,102,104,107,73,112,109,169,131,163,121,122,164,183,131,123,124,97,102,117,108,144,141,115,125,104,132,113,99,124,113,127,128,114,116,129,163,137,122,116,118,115,122,123,144,139,141
113,111,122,108,102,77,122,122,110,121,119,92,123,170,122,96,135,127,120,152,124,123,149,154,126,124,117,163,136,70,122,114,121,121,134,109,107,191,151,121,112,120,112,99,112,76,138,104,129,124,100,127,125,133,116,141,110,118,135,121,115,106,122,103,117,122,148,97,123,149,127,113,111,118,123,117,120,167,125,140,152,123,119,121,117,100,127,131,94,115,141,113,135,130,92,123,115,122,92,125,123,114,97,103,118,122,118,113,113,110,111,127,124,128,113,139,137,77,114,107,138,123,130,91,129,221,154,116
111,118,116,113,146,109,95,111,111,124,122,167,140,132,69,117,139,124,115,141,148,183,96,129,123,125,96,116,124,120,105,90,113,119,98,101,109,115,90,117,117,122,108,145,141,118,121,105,110,114,106,120,113,124,152,119,128,129,143,102,138,131,118,136,121,123,121,117,166,204,123,134,155,118,90,152,131,133,129,117,108,124,124,147,136,120,112,113,112,121,139,150,127,113,117,97,122,122,123,118,106,92,57,107,113,128,110,129,136,152,149,126,149,120,107,124,127,90,109,128,108,116,115,113,115,91,78,101
116,122,117,155,137,173,138,124,109,130,109,139,138,120,128,100,154,114,117,116,106,118,126,151,108,106,117,69,102,121,168,124,119,127,130,196,166,60,105,128,130,125,127,110,118,206,194,121,124,121,124,151,158,162,107,117,119,120,105,93,95,102,122,120,109,121,98,113,113,157,127,111,119,115,88,134,122,86,138,118,112,116,119,114,121,126,103,115,121,124,135,129,140,176,145,119,123,119,144,115,110,97,97,112,120,122,137,125,124,139,165,131,108,115,124,124,135,144,125,120,125,116,115,106,108,85,89,98
119,121,137,113,144,131,105,127,125,121,157,130,122,159,138,117,115,123,103,118,102,71,98,110,122,125,125,117,122,137,139,126,116,117,116,132,127,110,127,111,122,124,110,132,139,136,73,101,114,115,120,120,111,81,111,134,132,123,120,120,122,172,86,104,113,124,94,147,127,87,123,120,122,124,99,119,112,101,92,118,116,121,123,94,107,178,160,119,120,123,113,115,113,109,146,125,122,121,118,128,161,171,137,118,117,119,131,133,116,122,126,131,113,118,124,138,132,70,85,102,121,122,126,102,122,167,137,115
124,119,136,103,95,79,94,120,110,122,111,120,118,106,123,119,146,118,134,114,111,82,7,116,122,128,110,131,143,186,142,112,110,120,103,131,115,101,79,108,120,116,109,102,97,97,129,113,130,133,105,152,159,182,126,117,105,117,134,112,110,117,135,129,125,120,144,130,134,119,134,118,118,122,114,128,118,153,80,121,123,127,136,161,157,111,130,134,130,121,124,132,109,158,154,121,122,120,120,110,124,103,114,117,102,112,104,134,125,100,123,112,120,122,107,109,110,135,84,117,127,123,106,138,123,149,131,109
109,119,128,101,115,131,103,104,126,125,104,99,99,135,131,135,117,112,140,116,117,74,80,105,129,116,132,131,109,117,114,118,120,129,114,135,131,110,105,119,117,123,119,120,107,61,125,122,129,124,123,130,130,106,80,127,117,121,141,107,116,123,108,117,118,120,106,101,111,205,149,129,117,120,90,156,107,132,132,126,116,120,113,102,114,114,111,102,121,123,119,111,96,109,104,110,124,122,132,142,124,91,120,121,128,116,121,125,120,142,147,118,115,126,123,135,135,119,137,109,121,118,107,117,103,123,129,125
125,123,135,122,121,108,142,123,115,120,130,120,123,119,111,110,114,118,111,123,100,108,136,122,126,121,126,113,128,122,115,114,129,119,117,111,102,103,135,115,116,123,98,106,120,107,102,120,117,122,119,125,118,93,59,107,113,117,114,122,115,106,117,108,122,124,135,107,124,139,145,141,123,115,115,119,113,121,152,127,112,120,123,117,106,113,87,100,126,127,144,115,113,118,146,120,124,121,125,131,115,72,106,146,113,118,134,132,126,106,112,109,119,119,88,122,122,147,154,117,125,123,118,112,119,117,123,140
121,121,126,118,115,90,120,116,115,121,112,118,120,115,154,123,127,124,126,126,133,176,100,106,119,117,105,137,107,97,111,125,119,123,110,112,122,169,172,134,118,126,109,136,126,107,100,114,120,123,125,112,108,90,133,124,115,119,141,119,119,160,180,127,138,119,151,118,124,141,140,131,117,123,111,133,127,116,90,104,121,123,134,130,136,161,112,115,119,120,119,126,135,102,124,129,115,125,122,131,121,139,155,114,128,118,129,112,118,158,113,129,120,122,135,124,124,128,121,124,111,122,160,121,119,115,117,118
121,121,141,120,120,139,129,120,126,124,126,118,113,87,110,118,114,116,110,121,120,97,117,124,138,124,123,125,132,180,146,124,108,122,101,124,119,104,116,116,120,123,113,118,112,113,125,119,121,125,128,102,106,134,161,120,121,125,132,116,133,146,173,134,131,117,121,111,114,99,153,126,119,129,154,108,120,166,129,128,121,122,115,145,132,137,158,121,119,118,108,105,103,136,146,120,118,124,125,122,120,151,172,125,122,121,129,124,130,110,139,124,117,121,110,111,116,132,119,133,118,121,102,122,116,83,111,108
114,119,118,144,122,189,144,113,123,123,120,136,138,118,97,111,123,119,132,117,116,104,89,119,119,119,122,115,102,138,161,126,119,125,126,134,126,125,121,120,105,118,142,115,117,124,107,104,126,109,132,103,115,135,127,125,119,126,140,135,119,112,115,112,112,119,137,127,138,95,120,115,141,126,111,134,134,136,69,125,119,120,65,127,111,103,140,117,111,116,112,114,125,94,111,119,110,123,132,114,115,131,122,115,143,127,97,124,120,132,149,151,119,119,96,118,115,143,135,124,123,125,124,123,112,100,116,115
130,120,120,116,109,135,125,121,110,119,99,121,109,4,105,111,120,125,96,125,140,178,104,114,115,124,114,137,116,118,111,112,122,119,109,124,105,72,73,118,120,120,111,128,126,110,141,124,119,120,128,125,131,143,120,114,112,123,133,123,135,109,96,115,145,116,132,104,99,106,124,132,115,125,116,125,119,111,124,122,120,125,155,119,125,159,140,140,119,114,138,106,114,72,109,114,120,125,129,143,148,158,71,118,120,122,110,113,112,126,121,126,122,123,83,94,113,118,89,105,111,124,127,115,119,94,121,119
143,121,129,134,121,101,81,128,106,117,99,118,118,139,149,122,114,128,122,122,121,181,133,130,145,122,120,117,120,102,140,139,115,125,142,100,122,129,102,114,132,125,127,129,126,161,123,128,118,117,105,115,107,132,132,117,104,123,108,111,113,119,113,113,137,124,129,130,127,227,145,127,114,115,122,88,86,97,97,109,117,123,147,134,159,128,136,121,117,121,152,111,118,108,114,114,135,117,132,116,99,39,114,126,115,123,102,109,116,191,147,117,121,121,129,132,136,131,79,113,114,125,147,117,118,165,145,122
123,118,123,122,126,96,128,118,130,128,98,120,120,146,166,138,115,111,111,115,121,132,75,101,116,121,123,122,119,100,132,111,121,125,111,140,142,114,107,113,124,121,126,113,114,167,136,130,120,120,113,162,160,107,97,101,116,124,148,130,113,189,125,123,126,123,139,108,117,123,143,119,124,122,128,118,111,100,105,118,119,114,124,104,111,106,78,105,131,125,110,123,163,137,88,125,111,115,136,104,87,100,133,134,119,125,130,131,133,174,147,117,121,120,115,113,129,141,163,126,118,119,124,115,109,95,141,127
130,127,155,125,124,139,138,134,117,121,109,139,122,98,120,125,139,118,100,122,117,48,80,116,114,123,144,128,138,149,133,127,111,125,159,109,110,124,125,115,125,124,124,135,153,163,116,123,122,115,111,122,124,122,106,118,119,119,112,129,132,127,133,124,124,127,115,126,120,105,153,129,120,119,93,112,102,79,83,111,113,128,88,125,127,150,159,119,144,117,112,134,135,145,127,125,104,117,128,130,104,77,125,119,117,122,131,140,134,125,136,130,115,125,123,156,125,114,66,107,143,127,123,120,121,92,146,139
124,120,107,133,134,185,145,120,119,125,153,133,143,84,152,133,118,121,115,126,114,81,129,129,144,127,142,114,139,182,135,136,114,112,111,110,94,59,84,111,119,123,115,97,117,123,143,125,121,121,128,146,129,103,134,130,117,124,129,139,141,140,90,114,132,119,107,115,112,89,134,119,121,121,132,133,143,198,107,116,127,118,123,105,116,123,119,126,116,125,134,122,116,74,108,118,124,122,113,116,138,201,171,108,126,124,100,123,123,106,95,133,121,121,112,148,146,135,127,107,131,120,143,110,107,85,122,117
122,123,125,114,118,132,139,130,116,121,109,126,122,61,85,114,118,122,108,127,118,170,160,121,121,121,103,123,115,106,125,122,130,125,135,129,123,119,124,121,117,118,128,107,113,110,133,122,119,127,128,128,126,133,76,107,118,124,124,127,138,146,120,125,112,119,143,116,112,69,121,115,135,123,142,126,128,111,104,121,116,120,134,120,114,104,126,125,113,125,141,130,123,100,124,121,136,124,102,130,134,161,167,132,114,121,126,112,104,100,116,123,125,122,148,117,118,91,116,124,126,118,135,114,114,118,111,115
124,130,146,139,143,143,110,126,118,126,147,119,124,93,97,107,116,114,138,110,118,113,90,128,112,118,138,94,104,121,130,104,127,124,121,127,130,137,121,119,113,114,99,106,99,60,111,112,114,118,101,110,116,167,142,117,117,122,108,131,123,102,113,121,124,127,137,103,97,118,123,131,115,116,123,122,113,130,80,105,121,120,109,126,119,143,144,126,122,121,127,123,146,100,108,112,113,121,146,119,118,103,131,121,119,120,141,106,122,177,128,122,114,117,129,122,107,111,133,124,126,124,131,130,119,79,78,87
120,125,165,120,114,105,128,140,119,122,197,114,106,117,140,126,122,116,180,109,113,88,99,111,135,121,138,129,132,129,127,120,108,123,127,119,120,176,133,119,120,120,130,142,142,94,162,124,136,120,170,127,128,141,120,127,114,121,165,158,152,136,117,131,113,116,171,110,124,114,115,108,108,124,92,148,130,88,123,114,130,122,7,131,123,105,70,104,135,119,25,141,124,157,166,135,120,125,89,117,116,140,148,125,122,123,150,134,133,104,126,124,117,117,159,120,142,131,141,123,114,124,115,124,123,114,132,120
122,115,125,115,117,120,117,119,120,119,138,142,146,110,120,119,114,123,92,119,113,108,127,104,127,125,77,126,124,122,137,151,125,123,106,114,112,111,115,122,115,119,116,113,127,82,116,118,120,123,157,107,121,106,120,121,124,122,140,152,118,125,138,126,122,121,170,114,126,125,121,114,125,122,131,118,94,87,123,119,122,122,132,135,156,113,18,103,109,122,102,117,117,124,127,109,128,118,98,121,121,77,120,123,113,118,78,122,123,93,112,118,124,123,88,124,123,126,114,122,124,125,110,131,130,120,134,128
120,122,142,115,114,140,126,119,114,119,134,127,123,130,116,120,119,121,134,117,132,117,126,123,116,126,135,117,135,104,107,122,135,123,134,121,122,154,122,125,114,121,147,121,124,117,103,111,133,126,171,114,126,94,132,135,123,119,171,129,127,148,134,113,117,121,134,102,99,117,140,123,121,125,123,154,139,115,105,113,117,122,142,104,119,123,126,123,121,121,153,132,118,104,139,120,119,122,152,117,114,105,96,128,107,121,162,106,110,136,147,104,138,114,137,99,87,114,62,120,120,128,98,148,147,117,94,105
108,117,84,73,97,103,112,108,120,123,106,114,127,124,128,105,121,120,117,122,128,123,125,123,141,120,97,110,98,90,131,142,116,124,63,104,130,79,76,113,117,123,49,128,111,128,133,121,122,123,45,118,133,141,111,107,113,118,126,110,110,114,123,106,111,120,123,102,113,82,119,107,125,119,126,133,131,85,92,123,120,124,87,114,124,130,108,119,119,121,71,117,102,66,106,121,117,122,118,119,92,115,101,116,108,118,139,116,131,162,123,127,109,115,105,142,118,77,109,105,116,128,158,144,133,89,92,129
133,121,131,110,117,153,127,116,123,119,150,103,92,113,169,131,122,124,135,121,116,118,66,111,92,119,148,115,119,110,131,102,157,128,78,136,156,179,151,138,108,118,108,124,114,112,122,115,122,122,131,133,126,100,126,123,123,120,169,117,116,119,124,132,116,123,146,156,116,92,95,113,127,123,86,129,152,136,121,122,115,116,56,101,107,84,164,123,122,119,81,113,98,130,81,113,119,124,107,124,115,144,130,120,115,119,151,109,121,89,119,107,110,126,147,131,142,177,115,130,125,115,142,135,145,137,119,121
125,124,107,124,134,110,111,117,114,127,118,127,134,108,104,118,125,118,126,116,112,127,151,111,126,125,156,114,110,138,162,140,122,117,161,125,137,180,127,109,117,123,137,114,115,117,139,121,120,124,111,122,132,106,128,124,111,122,119,131,123,97,122,120,121,114,128,135,127,141,120,126,122,127,134,112,104,113,123,128,123,120,96,122,132,139,120,121,135,120,67,106,100,128,103,120,110,120,115,120,111,111,108,106,117,119,115,105,117,117,125,121,107,122,103,118,136,115,131,113,128,113,119,122,118,77,97,124
114,125,120,114,114,146,109,113,119,122,159,160,164,123,122,119,115,116,131,110,130,98,109,116,124,120,88,127,123,154,126,116,121,125,120,124,129,174,123,128,119,119,116,104,107,107,154,123,125,124,136,147,136,150,140,105,119,121,115,132,124,145,111,122,117,122,150,121,111,105,146,124,104,122,107,112,104,96,125,111,133,110,99,119,110,113,94,114,115,122,149,119,116,109,123,127,127,121,145,122,116,112,131,133,121,113,96,117,110,98,131,119,119,124,95,108,105,120,121,123,127,126,113,114,127,121,162,141
119,121,94,118,117,86,115,116,123,121,130,125,121,87,55,104,123,123,141,135,139,137,131,130,118,119,172,103,106,104,129,116,115,125,147,112,127,79,80,124,145,118,136,121,123,119,133,144,111,119,115,119,115,112,118,106,120,124,151,119,115,130,103,117,122,120,131,103,108,117,131,140,124,118,98,119,123,139,118,129,108,122,106,123,121,113,105,103,127,121,83,125,128,121,115,110,114,124,96,116,121,112,111,119,115,117,106,122,127,132,142,111,124,126,132,132,140,140,81,118,110,116,126,119,142,98,112,127
122,121,138,120,127,86,122,99,117,122,130,113,99,125,145,124,121,121,125,121,136,110,110,135,122,118,97,114,109,110,113,117,117,122,118,101,110,83,135,130,136,130,108,166,162,121,179,146,116,122,104,117,107,92,87,111,121,125,146,115,114,81,124,92,102,114,151,143,170,145,104,121,126,124,148,134,105,99,125,126,114,124,82,113,119,114,88,113,128,125,61,140,135,132,132,135,113,119,81,117,124,101,114,117,122,117,80,120,121,129,118,119,119,120,125,110,110,85,108,113,122,131,174,148,161,142,122,128
131,120,134,120,119,98,116,126,121,121,106,115,123,133,125,135,110,120,101,100,118,141,125,83,121,125,116,175,134,118,114,142,112,122,105,119,118,130,142,121,127,117,101,113,120,113,108,123,122,123,99,123,114,150,172,132,114,118,123,114,119,131,148,115,116,119,125,136,117,79,78,109,133,124,124,122,130,134,152,132,112,116,141,129,121,107,122,134,125,123,146,126,124,122,119,113,114,120,162,99,101,68,100,100,121,123,133,116,121,105,135,131,115,120,128,106,109,116,135,124,129,126,130,119,114,141,122,121
117,114,128,119,116,81,150,138,117,122,110,142,123,100,105,115,121,126,71,118,117,182,122,109,135,129,105,104,109,123,139,145,113,120,110,122,115,96,115,114,115,120,132,122,119,114,126,119,112,124,158,127,133,98,110,115,128,122,126,104,117,179,99,119,116,118,125,115,107,94,134,121,129,131,139,125,120,127,99,124,121,120,103,113,85,116,131,132,124,121,121,123,116,125,159,134,117,120,121,99,121,113,116,118,118,122,102,113,119,137,143,118,126,123,107,142,145,117,76,117,127,125,123,118,115,133,150,123
118,121,118,118,128,122,129,124,112,118,118,130,116,113,115,116,139,126,121,118,118,105,157,143,117,123,133,123,118,75,84,117,121,130,138,131,136,122,114,122,122,116,146,118,143,126,119,144,117,117,138,122,109,87,123,128,121,125,146,133,124,128,114,110,119,121,130,114,101,106,106,122,116,117,113,132,129,119,141,118,115,117,117,104,104,112,117,118,120,123,133,119,122,90,107,117,116,121,104,117,115,112,147,114,118,122,106,127,125,114,141,129,113,115,114,107,119,136,112,111,116,126,149,115,106,102,100,115
131,120,135,120,115,132,125,117,120,122,130,103,107,108,163,124,122,125,98,148,134,120,178,129,115,120,127,114,114,117,124,118,116,117,120,106,119,141,104,119,126,123,95,125,132,135,139,128,123,121,121,108,114,92,136,116,118,122,116,124,132,140,107,114,119,120,106,132,129,128,134,123,128,125,109,116,116,118,118,119,121,119,98,115,125,127,107,114,126,124,87,182,143,118,133,137,116,125,112,111,116,120,128,111,111,120,116,106,105,88,117,124,139,123,132,127,139,192,132,139,114,120,124,115,113,124,84,109
113,126,131,128,135,158,168,126,128,123,112,123,119,108,127,126,137,117,113,122,135,151,136,136,108,124,130,126,119,102,111,105,119,121,139,117,123,171,175,122,112,122,151,115,116,143,116,121,121,124,146,133,123,135,137,126,127,122,116,110,112,117,131,113,131,130,126,127,137,142,135,146,120,120,100,111,107,112,123,125,123,117,109,117,120,135,119,107,109,121,145,118,117,147,127,121,113,123,141,119,113,114,98,102,135,111,119,111,118,80,109,124,117,121,105,120,111,148,84,117,126,124,104,128,121,119,126,99
120,123,103,125,126,111,148,130,121,118,119,140,162,103,124,129,114,117,122,112,117,113,113,115,123,125,93,153,120,117,126,129,125,125,108,120,124,136,97,124,124,122,73,123,128,145,137,128,116,122,85,132,120,141,132,124,120,122,86,107,114,120,115,113,121,126,126,130,118,118,140,114,127,116,144,121,116,91,139,126,117,119,118,106,106,118,118,127,117,127,114,121,126,124,84,107,119,118,100,126,122,119,102,115,118,117,104,116,116,111,108,109,131,126,108,127,125,124,148,130,116,121,108,119,113,119,113,115
120,121,94,122,126,116,125,133,122,124,81,123,122,127,118,121,119,119,81,119,121,119,115,121,123,123,135,122,121,121,129,135,121,121,137,118,120,117,116,115,119,121,114,127,114,122,118,117,120,119,101,115,122,118,125,126,119,125,115,126,123,135,130,120,116,122,113,119,115,144,67,118,119,117,111,116,120,103,150,126,122,124,139,131,117,115,137,119,129,125,130,131,128,86,134,146,132,125,143,133,140,149,109,131,111,117,114,123,115,115,99,112,120,122,58,114,116,180,151,134,116,123,73,126,129,120,112,110
121,122,114,131,110,121,132,112,117,125,148,126,129,102,128,129,116,114,101,109,102,138,92,123,118,126,95,123,120,113,98,111,117,123,120,120,120,133,130,115,119,120,138,96,111,120,66,108,119,120,139,118,118,155,145,130,124,126,149,130,150,211,132,120,122,125,109,118,125,111,112,110,128,122,85,147,136,113,131,126,99,117,89,112,104,132,137,111,129,123,142,130,115,114,119,129,119,123,115,112,104,116,125,128,118,119,111,127,134,133,145,119,132,122,117,130,127,91,85,109,118,123,139,132,130,124,113,115
121,119,137,127,123,128,141,140,116,121,115,109,110,114,134,136,125,124,110,114,120,109,93,113,119,121,100,133,129,89,132,117,122,123,102,112,108,108,122,114,126,120,88,102,101,149,139,131,113,115,97,128,117,107,73,112,121,126,119,113,124,133,164,116,116,120,115,125,117,112,144,138,135,128,122,112,119,124,126,121,111,120,104,114,105,119,101,121,116,121,115,134,136,132,141,104,119,121,126,155,123,110,161,141,115,122,139,110,115,120,54,104,125,121,127,124,133,123,129,137,121,121,136,121,103,122,121,121
118,120,117,119,129,163,116,114,118,120,95,119,123,116,156,121,117,116,111,102,80,115,112,119,119,121,137,109,105,110,125,113,124,123,167,124,118,101,140,129,115,118,115,116,125,108,81,108,122,123,106,133,138,138,139,120,118,123,133,139,129,124,92,113,117,118,176,111,129,109,107,117,122,120,154,109,105,97,103,125,112,118,119,129,126,105,112,118,132,124,99,121,119,147,157,139,125,125,115,125,120,142,133,148,118,122,100,127,119,100,82,105,123,114,129,108,111,107,106,115,105,116,139,129,124,115,102,107
115,122,141,117,106,97,124,104,135,122,113,121,127,124,130,123,115,121,83,148,134,68,130,129,123,123,131,122,142,133,72,125,124,119,158,123,114,84,120,133,112,119,137,122,112,111,108,107,121,121,102,116,115,150,121,126,121,124,97,109,118,135,111,112,123,117,97,122,123,104,154,135,123,130,106,112,106,120,124,129,118,112,103,115,112,201,140,112,125,123,132,100,105,100,118,121,121,121,139,113,112,101,124,121,123,123,118,116,122,116,98,110,122,125,109,119,129,141,176,128,114,117,107,130,120,125,121,118
129,122,135,109,118,104,179,139,120,125,168,117,126,101,90,117,112,119,147,124,137,90,134,124,118,119,140,121,123,105,112,113,119,126,150,122,114,122,77,110,114,123,131,118,120,109,140,127,115,119,113,137,125,115,99,96,116,121,109,121,133,147,128,103,128,123,130,126,127,108,140,126,121,119,126,140,129,146,193,146,135,123,117,117,128,190,159,133,118,123,109,113,111,94,110,107,121,124,98,110,114,115,127,126,122,119,100,133,118,120,98,120,117,116,99,111,116,103,122,143,114,124,116,128,135,113,143,118
133,119,119,124,127,146,148,139,113,123,124,127,125,121,30,97,122,123,107,118,117,93,143,129,117,120,136,113,122,123,105,112,114,117,139,123,122,115,114,113,127,121,122,118,120,121,140,127,121,119,125,105,107,114,97,115,118,125,130,126,123,116,112,96,112,114,114,106,104,116,89,106,122,120,145,123,124,120,106,119,120,120,112,121,142,130,144,120,116,120,110,116,111,115,117,124,123,123,136,133,123,119,110,108,125,126,116,100,108,136,121,127,120,123,116,126,137,128,110,122,115,122,125,119,137,146,86,113
124,116,134,130,130,138,146,122,123,125,84,123,121,111,143,108,114,120,109,129,112,118,121,108,122,123,144,136,134,102,145,146,122,116,136,117,121,147,126,129,119,120,131,118,116,118,116,119,123,126,118,121,131,189,155,123,134,122,107,149,151,177,76,124,121,119,98,121,125,101,95,124,117,123,100,133,117,114,151,116,126,128,103,120,120,130,122,113,122,115,110,122,145,100,130,126,125,126,118,124,126,162,141,130,114,117,93,116,118,130,102,109,124,124,76,142,129,114,143,134,111,123,129,115,113,102,129,104
127,117,155,106,105,161,129,137,119,120,140,129,132,148,98,114,112,118,140,109,105,101,137,130,98,120,149,111,102,111,139,105,146,121,175,130,134,97,48,116,112,121,117,122,121,109,125,115,114,121,112,128,115,126,155,144,128,123,124,124,114,89,104,131,119,124,107,139,144,161,108,113,117,118,109,101,100,107,137,113,120,121,115,135,131,129,148,124,123,126,123,117,133,138,144,137,134,122,94,134,145,161,131,126,120,121,136,122,125,106,109,123,118,122,133,98,111,108,99,122,116,122,139,114,125,123,92,108
129,119,111,129,136,137,126,126,128,119,98,100,130,137,143,129,112,120,125,117,108,131,102,109,124,124,120,113,119,155,139,141,136,130,100,117,117,163,138,136,138,116,114,119,120,114,121,134,109,120,116,118,121,91,59,108,121,123,128,116,109,113,102,113,99,120,143,112,110,128,134,110,140,118,127,118,115,146,129,141,114,118,110,116,112,95,114,115,117,123,94,113,122,149,120,104,122,127,93,134,147,111,154,122,123,116,89,114,113,93,109,117,119,124,101,126,117,119,106,116,118,121,138,123,139,123,140,122
118,125,158,127,120,122,144,108,120,120,130,121,127,132,95,116,122,120,139,114,117,123,119,118,121,119,123,120,116,110,124,122,120,124,141,113,104,123,145,121,126,123,112,123,124,146,163,121,114,117,106,123,150,119,100,128,126,126,98,122,123,124,120,125,116,120,108,128,124,130,135,116,121,122,117,120,119,120,111,136,127,122,126,119,117,141,147,130,115,116,131,114,106,107,99,118,116,123,145,124,122,133,48,116,118,121,129,114,110,114,125,108,113,114,123,116,117,146,99,105,120,120,132,109,118,55,149,131
120,128,122,140,138,178,119,117,130,117,93,120,141,107,179,126,115,123,117,126,129,110,86,122,136,134,141,153,119,85,141,126,120,116,129,123,130,92,116,120,103,114,114,98,82,75,113,97,122,125,89,126,133,131,173,129,123,122,115,130,137,70,155,137,125,122,122,104,110,120,115,120,118,122,103,128,128,120,120,115,115,118,148,105,136,168,103,121,122,119,102,112,116,96,95,119,123,122,98,128,123,123,129,114,118,122,137,142,134,133,101,120,120,119,159,113,115,99,121,136,126,123,151,121,135,121,164,111
119,123,135,119,119,141,135,124,125,124,116,132,134,112,110,111,135,122,114,121,148,159,161,144,115,124,114,123,114,106,150,109,121,125,125,122,128,152,146,121,119,120,144,111,121,151,127,114,118,123,118,112,100,76,125,116,136,126,141,125,127,179,140,127,109,119,118,140,143,122,145,115,124,122,96,114,102,112,110,125,125,127,103,126,126,145,123,130,117,116,136,120,102,74,118,118,121,123,117,129,119,131,117,115,119,119,126,109,120,93,135,128,109,125,93,149,164,188,112,96,141,118,109,115,119,93,140,144
122,121,131,126,118,125,101,132,113,122,152,121,125,114,128,107,113,114,134,118,112,119,127,131,115,124,114,128,133,123,114,95,132,122,133,89,111,128,142,135,120,125,121,121,127,91,115,144,132,124,95,128,131,170,139,124,113,111,87,97,96,112,104,114,121,126,92,126,116,109,120,133,141,128,109,135,133,128,120,150,117,118,119,92,101,96,93,106,120,121,118,120,118,87,133,122,125,122,114,116,112,134,140,130,116,120,126,112,111,129,108,107,120,118,125,121,121,132,69,113,119,122,109,117,114,117,120,113
119,122,106,134,122,119,130,132,117,116,103,104,107,115,118,113,119,125,114,124,120,132,127,109,117,116,121,120,110,95,124,117,111,120,146,121,120,131,126,107,124,125,123,127,116,161,138,136,119,118,110,120,119,103,100,105,125,115,108,113,113,79,73,124,117,122,137,125,138,139,118,95,116,122,121,131,137,141,127,110,116,118,136,118,125,115,111,111,132,120,111,113,114,121,148,120,108,118,129,112,111,114,123,117,132,127,134,126,129,127,142,135,120,123,100,130,120,117,122,131,130,120,99,117,116,75,112,115
115,121,117,150,152,141,84,110,110,120,111,118,110,123,136,111,135,126,118,126,107,106,97,113,131,125,121,121,143,204,161,143,120,121,137,118,110,108,120,116,117,122,142,128,155,106,129,111,117,117,101,118,121,150,133,115,118,120,133,118,112,103,137,124,119,120,143,116,112,111,143,112,125,124,140,121,119,149,119,125,139,121,105,113,122,95,159,139,118,122,128,132,108,170,95,126,117,123,130,115,122,94,157,125,124,123,103,122,113,106,129,124,117,114,119,89,98,106,111,109,123,122,133,120,112,126,122,113
118,122,113,124,115,112,141,115,124,121,117,122,125,155,121,135,123,123,98,114,95,91,114,119,129,124,131,120,131,145,123,122,123,120,144,123,120,113,104,122,128,127,156,107,129,145,185,149,127,123,154,107,93,128,124,107,116,120,138,113,108,114,133,142,101,121,104,116,126,135,172,113,139,119,114,101,97,134,130,131,122,125,105,134,134,135,110,132,118,123,130,115,109,124,108,98,122,122,124,123,133,87,120,131,133,123,113,108,113,158,133,117,113,116,111,114,118,109,127,115,120,120,107,93,91,95,101,117
133,127,106,128,129,84,139,122,119,118,114,138,126,160,116,117,116,121,128,113,118,80,125,121,116,121,143,115,125,240,183,116,116,121,159,121,117,105,85,103,131,121,124,114,110,91,124,116,108,111,102,104,99,101,95,101,128,123,90,129,138,124,162,127,116,121,96,123,125,128,90,87,115,125,112,134,135,132,139,119,121,120,113,117,122,113,165,138,113,116,100,107,109,79,78,77,121,131,138,120,118,144,124,125,127,115,117,123,123,110,128,120,129,122,122,111,127,95,87,112,124,123,169,114,108,104,129,141
120,121,151,102,95,85,95,105,121,126,105,114,115,87,112,137,125,117,115,119,118,103,98,114,117,119,115,121,132,108,93,107,115,119,123,123,117,129,132,119,136,123,126,159,134,123,100,88,118,120,121,117,122,134,114,123,125,121,115,112,117,118,124,121,117,121,99,135,127,108,126,127,109,130,118,118,93,100,127,130,131,113,124,117,124,122,86,103,116,118,133,114,117,116,119,121,116,127,137,136,124,130,139,118,123,121,125,116,113,113,114,123,110,119,150,132,139,111,110,118,123,120,133,118,119,118,120,110
114,118,116,118,115,113,150,129,119,124,87,138,129,137,116,111,119,121,86,119,121,114,121,115,123,122,112,142,129,118,119,128,117,119,114,113,109,110,95,114,121,123,110,126,128,147,115,116,126,123,106,123,127,105,146,136,122,124,139,122,118,119,122,113,119,119,133,137,142,119,120,123,119,123,121,157,109,118,120,113,130,126,114,103,114,114,121,135,117,121,126,123,121,121,120,116,119,117,108,140,112,104,124,120,120,122,104,124,118,130,117,116,120,121,115,120,118,120,134,121,122,123,134,136,138,112,101,119
117,118,140,115,101,105,118,118,126,121,189,104,113,124,117,115,120,124,147,106,114,122,119,128,127,120,135,127,111,108,129,150,122,126,172,162,135,140,136,120,126,126,165,127,108,144,130,126,119,119,153,115,134,134,108,121,120,121,175,122,120,120,130,119,122,119,199,117,122,121,124,123,120,122,242,121,128,122,122,121,117,124,241,128,120,97,112,98,122,122,240,119,129,141,131,148,121,119,241,113,125,117,118,120,116,120,221,124,121,122,120,109,121,122,156,119,117,118,120,113,119,119,210,116,115,119,117,116
127,121,240,111,117,119,140,141,120,123,242,123,123,118,106,115,123,123,238,113,123,125,125,124,116,116,151,105,135,122,122,123,122,123,129,131,110,112,121,130,127,122,123,132,132,123,122,140,120,122,123,125,123,121,120,114,121,121,122,127,120,116,121,125,118,121,122,115,115,111,117,117,122,121,121,126,120,119,119,112,123,124,122,122,125,132,131,121,122,120,121,121,113,116,118,110,117,120,121,123,121,119,124,124,125,123,122,128,117,112,134,136,120,121,121,122,137,123,121,116,120,122,121,122,119,122,121,115
121,122,120,121,120,122,121,118,121,120,120,121,120,120,122,123,121,121,120,121,119,119,121,122,118,120,121,122,122,122,121,117,122,121,121,121,120,120,121,122,121,122,121,122,121,120,119,113,117,120,121,123,121,120,118,113,126,121,120,114,108,116,126,145,118,118,120,122,121,121,119,109,124,122,121,121,121,122,123,133,120,122,122,122,121,121,121,118,120,122,121,122,121,120,120,118,119,119,120,121,121,121,121,119,121,121,120,121,121,121,122,122,121,122,121,122,120,121,121,119,121,122,122,123,122,122,121,121
120,121,121,122,122,121,121,120,121,122,121,122,121,121,121,120,121,122,120,121,121,121,121,121,120,120,121,122,121,121,121,120,119,121,121,122,121,122,120,118,120,121,120,121,120,115,123,116,122,123,121,121,121,121,120,121,121,122,120,121,121,121,122,121,121,122,122,123,122,121,122,120,120,121,122,121,121,120,121,121,121,121,120,121,121,121,122,121,120,122,121,122,121,121,122,121,120,121,121,122,121,120,121,120,120,120,120,122,121,121,122,120,121,121,120,121,121,121,121,121,121,122,121,122,121,120,121,120
120,121,122,121,120,120,121,120,119,122,121,122,121,120,121,121,121,121,120,121,120,120,122,121,121,120,96,122,122,122,122,120,121,122,78,122,121,120,122,121,120,121,81,123,122,121,122,121,120,121,86,123,120,120,121,120,121,122,89,122,120,121,122,121,121,122,94,122,120,121,121,120,120,122,97,122,121,120,121,121,120,121,99,123,121,121,122,121,121,123,99,122,120,121,121,121,120,120,100,122,121,121,121,119,121,122,101,122,121,123,117,121,120,120,102,122,121,121,122,120,120,120,105,121,121,122,127,121
121,122,106,122,120,121,122,121,121,120,105,122,121,121,122,120,121,122,106,122,120,120,121,121,120,122,107,122,121,123,123,118,120,122,107,121,121,120,120,120,121,121,109,122,121,120,121,120,121,122,109,121,121,121,122,121,121,122,110,121,121,123,122,120,120,121,110,121,120,121,122,120,120,122,111,122,121,120,121,120,121,121,109,121,120,119,120,120,121,122,110,121,121,121,121,120,121,122,111,121,121,121,121,121,120,119,110,122,121,121,122,120,120,123,113,122,120,121,121,120,121,122,113,121,121,121,121,120
122,124,113,122,122,122,122,121,121,121,113,122,121,123,132,122,120,121,112,121,121,122,122,119,121,122,113,121,122,123,123,120,121,122,114,121,120,119,122,121,122,122,115,123,122,122,122,120,119,120,114,121,121,121,122,121,119,120,114,121,121,120,121,121,121,123,116,122,120,121,121,120,122,123,116,122,122,122,122,120,121,122,116,121,120,121,122,120,120,120,114,121,121,122,121,121,120,120,115,121,121,121,121,120,121,122,117,123,121,119,118,121,121,121,116,122,122,122,122,120,120,121,116,122,121,120,121,119
120,122,116,121,121,121,121,120,120,120,116,122,121,121,122,121,120,120,116,122,122,122,121,120,121,122,118,121,120,121,121,119,121,121,117,122,122,121,121,120,122,122,117,121,121,119,123,121,120,121,117,122,122,121,121,120,120,121,118,122,122,121,121,121,121,121,116,121,121,121,122,121,121,122,119,122,120,121,121,121,120,121,117,121,121,121,121,120,121,122,117,122,122,122,122,120,121,121,117,122,121,121,121,121,120,122,118,122,122,122,121,119,121,122,118,121,121,121,121,121,120,122,118,121,121,123,119,119
120,121,118,122,121,120,120,120,120,121,118,122,121,120,121,120,121,122,119,122,121,120,121,120,121,120,118,122,121,121,121,120,121,123,118,122,122,122,122,121,121,121,118,121,121,123,122,121,120,121,118,122,121,121,121,120,121,123,119,121,120,120,122,121,119,119,118,121,121,121,122,121,121,122,119,121,120,120,122,120,121,121,118,121,121,121,121,120,121,122,119,122,122,121,121,120,120,122,119,121,121,121,121,121,120,121,119,122,122,122,127,120,121,121,119,122,122,126,122,123,120,122,119,122,121,120,119,120
120,122,119,120,119,119,121,118,120,121,119,121,121,119,121,122,123,123,119,121,120,119,122,126,120,121,119,122,122,130,121,121,120,121,119,121,121,117,122,118,121,123,120,122,121,123,125,130,133,123,120,122,121,117,125,152,117,120,119,121,121,119,119,114,121,123,119,121,121,120,121,115,119,119,119,121,121,120,122,118,120,123,120,121,121,121,121,120,122,121,119,121,121,121,121,122,121,122,120,121,121,121,122,121,121,121,119,122,121,122,122,120,121,122,120,122,120,120,121,120,121,121,118,121,121,121,122,120
120,121,119,121,120,118,106,118,120,120,119,122,122,122,122,120,121,122,119,121,121,121,122,120,121,121,120,122,122,122,121,120,121,121,119,121,121,121,121,120,120,121,120,122,121,121,121,120,121,122,120,122,120,120,121,121,120,121,120,121,121,122,121,120,121,122,120,121,121,121,122,121,121,122,119,120,121,123,121,120,122,122,121,123,122,123,127,123,121,123,121,123,123,126,132,123,121,121,120,122,122,122,122,121,121,122,120,121,121,121,121,121,120,122,120,122,121,121,121,120,121,120,119,122,121,120,120,120
120,121,120,121,120,120,121,120,120,121,120,122,121,121,121,119,121,122,119,121,121,122,121,121,120,122,121,122,121,120,121,120,121,122,120,121,121,121,122,121,120,121,119,122,122,122,121,119,120,122,120,122,121,121,122,120,120,121,119,121,121,121,119,120,120,121,120,121,120,121,121,121,121,121,120,122,121,121,122,119,120,121,119,122,121,121,121,120,121,122,121,122,122,121,121,121,120,119,119,121,121,121,122,120,121,121,119,121,120,119,120,120,120,122,120,122,122,121,121,119,121,122,121,121,120,120,121,121
120,121,120,121,120,121,121,120,120,121,120,122,122,120,121,120,121,123,121,122,121,121,122,122,121,122,120,122,120,121,121,120,120,121,121,122,120,120,121,120,120,122,121,122,121,121,121,120,121,122,121,121,120,121,121,121,121,122,121,121,120,120,121,120,120,122,119,121,121,121,122,120,120,122,121,122,121,122,121,120,120,121,120,122,120,120,121,120,121,122,120,122,121,122,122,121,121,122,120,121,121,121,119,120,120,121,120,122,121,121,122,120,120,121,120,122,121,121,121,120,120,121,120,122,121,121,122,120
120,121,120,122,121,122,121,120,120,120,119,121,121,121,122,120,121,122,121,122,120,121,121,120,121,122,121,122,121,120,121,121,121,122,121,122,121,121,122,121,120,121,120,121,121,122,126,120,120,121,120,121,121,122,121,118,120,121,122,122,122,119,122,121,119,121,119,121,121,120,121,120,120,121,120,121,121,121,122,121,122,122,120,121,121,121,122,121,120,122,121,122,121,122,121,120,121,122,121,121,120,121,121,121,121,122,121,122,120,121,121,121,120,121,120,122,121,121,121,121,121,122,120,121,120,120,120,120
121,121,121,122,121,121,121,120,120,122,121,123,122,123,122,120,121,122,120,121,121,120,122,120,121,122,120,121,120,120,121,120,121,122,120,121,121,121,121,121,121,122,121,121,121,121,121,120,120,121,121,122,121,120,121,121,122,122,120,121,121,121,122,121,121,122,121,122,120,121,121,120,120,121,120,122,122,121,121,119,121,122,121,122,121,122,122,120,120,122,121,122,121,121,121,120,122,124,122,121,122,124,110,120,119,119,119,122,121,120,122,119,121,122,121,121,121,121,121,121,121,123,121,121,121,121,121,120
120,122,121,122,121,122,121,121,121,121,120,122,121,122,122,120,120,121,121,122,122,122,121,120,119,120,120,122,121,121,122,120,120,120,121,122,120,120,121,120,121,123,120,122,121,121,121,121,121,121,120,122,120,120,122,121,121,122,121,121,120,121,121,121,120,121,121,122,121,121,122,121,120,122,121,122,121,120,121,120,120,119,120,122,122,120,120,120,121,121,120,121,121,122,121,120,121,122,121,122,120,121,121,121,121,121,120,121,121,122,121,121,121,122,120,121,121,121,122,121,120,121,121,121,120,121,121,120
119,120,121,122,121,121,121,120,120,122,121,122,121,122,123,120,122,123,121,121,120,119,121,120,121,121,120,121,121,121,121,121,120,121,120,122,121,121,121,120,121,121,121,122,121,122,122,121,121,121,120,122,121,121,121,121,121,121,120,121,120,120,121,120,122,122,121,122,122,122,121,120,120,122,121,121,121,121,126,120,121,123,121,121,121,121,121,120,120,122,121,122,120,120,122,121,121,122,122,121,120,121,121,120,120,122,120,121,120,120,121,120,121,122,121,122,122,121,121,120,120,121,120,121,121,121,121,120
121,122,120,122,121,121,122,122,121,122,121,122,122,122,123,120,120,121,120,122,121,121,121,120,120,121,121,121,120,121,121,120,121,122,120,121,121,121,121,121,122,123,121,122,122,122,122,120,120,121,120,122,121,121,121,120,120,119,119,120,121,121,121,121,121,123,121,122,120,120,121,121,122,123,121,122,121,121,122,121,119,120,121,122,121,121,121,119,121,124,121,122,121,121,121,120,120,120,121,122,120,120,121,121,120,121,120,121,121,121,122,120,121,122,121,122,122,122,121,120,121,121,120,122,121,121,121,120
121,122,120,121,121,121,122,121,121,122,121,121,121,121,122,120,120,121,120,122,121,121,121,120,120,121,120,122,121,121,122,120,119,120,120,122,122,124,122,119,121,123,122,122,120,120,121,121,119,119,119,121,121,117,105,118,121,122,121,121,121,122,123,122,121,121,121,122,122,122,121,119,121,122,120,121,121,121,122,121,121,121,120,121,121,121,122,121,121,123,122,122,121,121,122,121,121,121,120,121,121,121,121,121,121,122,121,122,120,121,121,120,121,122,121,121,120,121,121,121,120,121,120,122,120,120,121,120
120,121,120,121,120,121,121,120,120,121,121,122,121,122,121,120,121,122,121,122,121,122,122,122,121,121,120,121,121,121,122,121,120,121,119,121,121,121,122,120,121,122,121,121,121,120,121,120,121,121,120,121,121,121,122,120,121,121,121,122,120,121,120,120,120,121,120,122,121,121,121,119,121,123,122,122,120,121,122,121,121,122,121,122,122,122,121,120,119,120,119,120,121,120,121,120,121,123,122,121,121,122,121,121,121,121,121,121,120,121,122,121,119,120,120,122,121,121,121,120,121,122,121,121,120,121,121,120
121,122,121,121,120,123,119,119,121,122,121,122,121,120,122,120,121,122,121,122,121,122,129,122,120,121,121,122,121,120,122,120,121,123,121,121,120,120,121,121,121,122,121,121,122,121,122,121,121,121,120,121,121,121,121,121,121,122,121,121,121,121,121,121,121,122,121,121,121,121,122,121,121,121,120,121,121,123,121,120,121,123,120,121,121,121,122,120,121,121,121,122,122,120,120,119,120,121,121,122,122,121,120,120,121,121,121,122,120,120,121,121,120,122,121,122,121,120,121,119,121,122,121,122,121,120,121,120
121,122,121,121,120,121,121,120,122,123,120,122,121,121,122,121,121,122,122,123,122,121,121,121,121,122,121,121,120,121,122,121,120,120,119,121,120,119,120,120,121,122,121,122,121,122,121,120,122,122,120,121,121,121,121,122,121,122,121,122,122,122,122,121,121,121,120,121,121,121,121,121,121,122,121,122,121,121,122,121,120,121,121,122,121,121,121,120,119,119,120,121,120,120,120,120,121,123,121,121,121,121,121,120,120,121,120,121,121,119,106,119,121,121,121,122,122,122,122,119,121,122,121,122,121,120,121,120
121,121,120,121,121,120,121,121,121,122,120,121,121,121,121,121,120,119,120,121,121,121,121,120,120,120,119,121,121,121,121,119,120,122,122,122,121,121,121,120,121,122,120,121,121,121,121,121,121,122,120,121,121,121,121,121,120,121,121,122,121,121,120,120,121,122,121,122,121,121,122,121,120,122,121,122,120,120,121,121,120,121,120,121,121,121,121,121,120,121,120,122,121,121,121,121,119,120,120,122,122,121,122,120,120,121,120,121,121,121,122,120,121,121,120,122,121,121,121,121,121,122,121,121,121,121,121,120
121,122,121,121,121,122,122,121,120,122,121,122,121,121,122,121,120,120,120,121,121,121,121,121,121,122,120,121,121,123,121,119,121,121,120,121,121,121,122,120,121,122,121,122,122,121,121,121,121,122,121,121,121,121,121,121,121,121,120,121,121,121,121,121,121,122,121,121,121,121,122,120,120,121,121,122,121,121,121,119,121,121,119,121,121,121,122,121,120,122,121,121,120,121,121,120,122,122,120,122,121,121,122,120,121,122,121,122,121,120,121,121,121,122,121,122,121,121,122,121,120,121,120,121,120,120,121,120
121,122,120,121,121,121,121,120,121,122,122,121,120,120,121,121,121,122,120,121,121,121,122,121,121,122,121,121,120,120,115,119,120,121,121,122,121,121,123,120,121,123,121,121,120,121,121,120,120,121,121,122,121,120,121,121,120,122,121,123,121,121,122,120,121,121,120,121,121,121,121,121,121,122,121,121,120,121,121,120,121,120,120,121,121,121,121,122,120,123,121,122,122,121,121,120,121,121,121,121,121,122,121,120,120,121,120,121,122,122,122,120,120,122,120,121,121,124,120,120,121,122,121,121,121,121,122,121
119,120,121,122,121,121,122,120,120,121,120,122,121,121,122,121,121,121,120,121,121,121,121,120,121,122,122,121,120,121,121,121,120,121,121,122,121,121,121,120,121,121,120,121,121,121,122,121,121,123,120,122,121,121,121,120,120,121,121,121,121,121,121,121,120,121,120,122,121,122,121,120,121,121,120,121,121,120,122,121,121,122,121,122,121,121,121,121,120,121,120,122,122,122,121,119,120,121,120,121,121,121,116,120,120,121,120,122,122,121,122,120,121,122,121,121,121,121,122,121,120,121,121,122,120,120,121,120
121,122,121,121,120,121,121,121,120,121,121,121,121,120,122,120,120,121,121,122,121,121,121,119,121,122,121,122,121,120,121,121,120,121,121,122,120,120,121,120,119,121,120,121,121,122,119,119,121,123,122,123,121,120,122,121,120,120,120,121,121,121,121,121,121,121,120,121,121,122,122,120,121,122,121,121,121,121,121,121,121,122,122,122,120,120,121,120,121,122,121,121,120,121,121,121,121,122,121,122,121,120,121,120,121,121,120,121,121,121,121,120,120,121,121,122,122,121,120,120,121,122,121,121,121,121,121,120
121,120,119,121,121,121,122,121,121,122,121,121,120,121,115,119,120,121,121,121,121,121,122,120,121,122,121,121,121,121,121,120,120,122,122,122,121,121,120,120,121,121,120,121,121,121,122,121,120,122,121,122,122,122,122,120,120,122,121,121,120,121,122,120,121,122,121,122,120,121,121,120,120,119,121,122,121,122,122,120,121,122,121,122,122,121,122,121,121,123,122,122,121,121,121,121,121,121,120,121,120,121,121,121,121,121,120,121,121,122,122,120,121,122,120,121,120,120,121,121,121,123,121,122,121,122,122,121
120,121,120,122,121,121,121,120,121,121,121,121,121,121,123,119,121,121,120,121,119,123,121,120,121,121,121,121,120,120,121,121,121,121,121,121,120,120,121,120,121,121,120,121,121,121,121,120,120,121,121,122,121,121,128,121,121,122,121,121,121,124,121,119,120,122,121,122,121,121,122,121,120,120,120,121,121,121,122,121,121,121,120,122,121,121,122,120,121,122,121,122,121,122,122,119,121,121,120,122,121,121,121,121,121,122,120,122,121,121,121,121,120,121,121,122,121,121,121,120,121,122,120,121,120,120,121,119
119,119,120,122,121,120,122,121,121,122,121,122,122,121,121,120,121,121,120,122,121,121,122,121,120,121,121,122,122,121,121,120,120,121,120,122,122,122,121,120,121,122,121,122,122,121,122,121,120,120,120,121,121,121,121,119,120,122,121,122,121,121,120,120,121,121,120,121,121,121,122,121,121,121,121,122,121,121,122,121,121,122,121,122,122,120,121,120,121,122,121,121,121,121,121,120,120,122,121,122,122,122,122,120,120,119,120,121,121,121,120,120,121,123,121,122,122,121,122,120,121,121,120,121,121,122,121,120
119,120,121,121,120,117,106,119,121,122,121,122,122,123,120,121,121,121,120,122,121,121,122,121,120,121,121,122,122,121,121,119,120,121,121,122,121,121,122,120,120,121,122,122,121,120,122,121,120,121,120,122,121,121,122,120,120,121,121,122,121,122,121,120,120,121,120,121,120,121,121,121,121,121,120,122,121,121,122,121,121,121,120,121,121,121,122,121,120,121,121,122,121,122,122,121,120,121,120,122,121,122,122,121,120,121,120,121,121,122,122,120,121,121,120,122,121,121,121,120,121,122,121,122,120,121,121,120
120,121,121,122,121,122,121,120,121,122,120,122,121,121,121,120,121,122,121,121,121,121,121,121,119,119,120,122,122,120,120,119,120,121,121,122,122,121,121,120,121,123,121,122,121,120,121,120,121,122,121,121,121,122,125,120,120,121,121,122,121,121,120,120,121,122,121,122,120,122,119,119,120,120,120,122,121,122,122,121,120,121,120,121,121,121,122,120,120,121,120,121,121,121,121,120,121,122,121,122,121,121,121,120,121,122,121,122,120,120,121,120,121,122,121,121,120,120,121,120,120,122,122,122,121,121,120,120
121,123,120,122,121,122,121,120,122,121,121,122,121,120,121,121,119,119,120,122,121,119,120,121,120,122,121,121,119,119,120,120,121,123,122,122,120,120,121,121,121,122,120,121,121,121,122,120,121,122,120,121,120,121,121,120,121,121,120,121,121,121,121,120,121,121,120,121,121,121,122,120,121,122,122,122,121,120,122,121,121,121,120,122,121,121,121,121,119,120,121,121,120,120,121,120,120,120,120,121,120,121,121,120,121,123,122,122,121,121,121,121,121,121,121,122,121,121,122,120,121,121,120,121,121,121,121,121
120,121,121,122,122,121,123,121,121,122,121,121,121,121,121,121,121,122,122,121,120,119,110,119,119,121,121,122,121,120,121,120,120,122,122,121,120,120,121,119,121,121,121,122,121,121,122,122,121,122,121,122,121,121,121,120,121,123,121,121,121,121,121,120,121,122,121,121,120,121,121,120,121,122,121,121,120,121,122,121,121,122,121,122,122,122,121,120,121,122,121,121,121,121,121,121,121,123,121,121,121,121,121,121,119,119,119,121,121,121,122,120,121,122,121,121,121,121,121,121,121,123,121,121,120,121,121,121
120,121,120,122,121,122,122,121,120,121,120,121,121,124,120,119,121,122,121,122,121,120,121,120,121,122,122,122,120,121,121,119,121,123,121,123,121,121,121,121,120,120,120,121,121,120,121,121,120,121,120,121,120,122,120,120,121,122,120,122,121,121,121,120,121,122,122,122,122,121,121,120,121,122,121,122,121,121,121,120,121,121,120,121,121,122,127,121,121,122,121,121,120,121,122,120,121,122,121,122,120,121,121,119,120,121,121,122,120,119,121,120,121,123,121,121,121,121,121,121,120,120,120,121,121,122,122,121
121,122,121,121,120,120,121,120,121,121,122,122,122,122,121,120,121,122,120,122,121,121,121,120,121,121,120,121,121,121,121,120,120,121,121,122,121,120,121,120,122,123,121,122,122,121,122,120,120,119,121,122,122,121,121,120,120,122,120,121,120,120,121,119,121,121,120,122,121,121,122,120,121,121,120,121,121,121,121,121,121,122,121,123,121,120,122,120,121,122,121,122,121,121,122,121,120,121,122,121,120,120,121,120,121,121,120,120,120,119,122,120,121,122,120,121,121,121,121,121,120,121,121,122,122,121,121,120
120,122,120,121,120,121,112,119,121,120,120,121,121,121,122,121,121,122,122,122,121,121,121,120,120,121,121,122,121,122,122,120,119,119,120,122,121,121,120,119,120,122,121,122,120,121,122,121,121,122,122,122,122,122,121,122,120,121,121,122,121,122,121,120,121,120,121,122,121,122,121,120,120,121,120,121,122,123,122,120,121,122,121,122,121,120,121,120,121,123,122,122,122,122,121,121,120,121,121,121,120,120,121,120,121,121,121,122,121,120,121,120,122,122,121,122,122,121,123,122,120,121,121,122,122,123,120,120
121,122,121,121,120,121,121,121,120,121,121,122,121,121,120,121,120,121,120,122,121,121,122,120,121,121,121,122,120,120,120,120,121,123,121,121,121,121,122,121,119,118,119,121,121,121,122,120,121,122,121,121,121,121,121,121,121,122,120,121,121,121,121,121,120,121,121,122,121,122,122,121,120,121,120,121,121,122,117,119,120,121,121,122,122,121,122,120,121,122,121,122,120,121,121,121,121,122,122,123,121,122,122,120,120,121,120,121,120,121,121,120,120,121,120,121,120,121,121,120,120,121,121,122,121,121,122,120
121,122,122,122,121,120,121,120,121,122,121,122,121,121,122,122,121,121,120,121,121,121,122,121,120,121,121,122,121,120,121,121,121,122,120,121,121,121,122,120,121,122,120,122,121,121,121,121,121,121,120,122,121,121,122,120,120,120,120,121,121,121,121,120,121,122,120,121,121,121,122,119,122,122,121,121,121,121,121,120,121,122,121,121,121,121,121,120,121,121,121,122,120,120,121,121,120,122,120,121,121,121,121,120,121,121,121,123,121,121,122,121,121,122,120,121,121,121,121,121,121,122,121,121,121,121,121,121
121,122,120,121,121,121,122,121,121,121,120,121,121,121,122,120,121,121,120,122,121,121,122,121,120,121,121,122,121,122,122,120,120,121,121,122,121,122,121,120,120,121,121,122,122,121,121,121,120,120,121,122,122,121,121,120,121,122,121,122,120,120,121,120,121,122,122,122,120,121,121,121,120,121,120,121,120,120,119,119,121,123,121,121,121,120,121,121,120,121,119,121,121,118,113,121,121,122,122,121,120,120,122,120,121,122,121,122,121,121,122,121,120,121,121,123,120,120,121,121,121,122,121,122,120,119,120,121
121,122,121,121,121,120,120,120,120,121,120,121,121,121,122,120,119,120,121,122,121,121,122,120,121,121,121,122,121,122,121,120,121,122,120,121,120,121,121,121,121,122,121,121,121,121,122,121,121,122,121,122,120,120,121,121,121,121,121,122,122,122,122,120,120,121,120,120,120,120,120,119,120,122,121,122,121,120,122,121,121,121,120,121,121,121,121,120,120,122,121,122,122,121,121,120,121,121,120,121,121,122,119,119,121,121,121,121,121,121,122,121,120,121,121,122,121,121,121,121,120,122,121,122,120,120,121,120
120,122,121,122,121,122,122,120,120,121,120,122,121,121,122,121,121,121,120,122,121,121,122,120,121,122,121,121,120,120,121,121,121,122,121,122,121,122,122,121,119,120,120,122,121,121,121,121,120,120,120,121,120,122,126,120,121,122,121,121,121,122,122,121,121,122,120,122,121,121,122,120,120,121,120,122,122,123,122,120,121,120,120,121,121,120,121,120,121,123,121,121,120,120,121,120,121,122,120,121,121,121,122,121,121,122,122,122,122,122,122,121,120,121,120,121,120,121,121,121,121,122,120,121,121,121,122,120
120,122,121,122,121,122,121,120,121,121,120,121,121,121,121,121,121,121,120,122,121,121,121,120,121,122,121,122,121,121,121,121,120,122,121,121,120,121,121,120,120,120,120,122,122,122,122,120,121,121,120,121,120,120,121,121,121,122,120,121,121,121,121,120,121,122,122,122,121,120,121,121,120,121,121,122,121,120,120,120,120,119,121,121,120,120,121,120,120,122,121,122,121,122,121,120,121,123,121,121,120,121,122,121,120,120,120,121,121,121,121,122,121,122,122,122,122,121,121,121,121,123,121,121,121,121,122,121
120,121,119,121,121,122,117,120,120,122,122,122,121,120,122,120,121,122,121,121,121,121,121,120,121,123,121,121,120,120,121,120,120,121,121,122,122,121,121,120,121,121,120,121,121,121,122,121,120,121,121,122,122,121,122,120,119,120,121,121,121,121,121,119,121,123,122,122,120,119,119,120,120,121,122,122,121,121,121,121,120,122,121,121,120,121,121,120,121,123,121,122,120,121,121,120,121,122,121,122,121,121,122,121,120,121,121,122,121,121,122,121,120,121,121,121,120,120,121,120,121,122,121,121,121,122,120,120
121,122,122,122,121,122,122,121,120,122,121,122,120,121,121,120,121,121,121,121,121,121,122,120,121,122,120,120,119,120,121,120,121,122,121,121,121,121,121,121,120,120,120,122,121,121,122,120,120,122,121,122,121,120,121,120,120,121,122,122,121,121,121,121,120,121,120,122,121,121,121,121,121,122,122,123,121,120,121,120,121,122,121,121,121,122,125,120,121,122,120,121,121,121,122,121,119,120,120,122,121,121,122,120,121,122,122,122,121,121,122,120,122,121,120,121,121,121,121,121,119,122,121,121,121,120,121,120
119,120,121,122,120,121,121,120,122,122,120,121,121,121,122,121,122,122,120,121,121,121,122,121,121,121,120,122,121,121,121,121,119,121,121,122,121,122,120,120,120,121,121,121,120,120,121,120,121,122,121,122,121,121,121,121,121,122,121,121,120,120,122,120,120,122,121,122,122,123,120,120,121,122,120,122,121,121,122,121,121,121,120,121,120,121,121,121,120,121,121,122,122,121,122,120,120,122,121,121,120,120,121,120,121,122,121,121,121,121,121,121,121,121,121,122,122,122,122,121,121,122,121,121,120,121,118,119
120,121,120,122,121,121,122,120,119,120,121,122,122,120,121,120,121,121,120,121,120,121,121,120,122,122,122,123,123,123,122,121,120,122,121,122,121,120,120,121,121,122,121,121,121,121,121,121,121,122,120,121,121,121,122,121,120,122,121,122,120,121,121,121,120,121,120,121,120,120,122,120,121,122,121,121,121,121,122,120,120,121,121,122,121,120,120,120,121,122,121,121,121,121,121,121,121,121,120,121,121,121,122,121,120,122,121,121,121,121,121,121,121,121,120,121,121,121,121,120,120,121,121,122,121,121,121,119
121,122,121,123,121,121,122,121,120,122,121,121,121,121,122,121,120,122,121,121,121,121,121,120,120,119,120,122,121,121,121,120,121,122,121,122,122,120,119,121,120,121,120,121,122,127,122,121,120,122,120,121,121,121,122,121,121,123,121,121,121,121,121,121,121,122,121,122,121,120,121,121,120,121,122,122,120,120,121,121,121,122,121,121,120,121,121,120,121,123,122,122,121,122,101,120,121,122,121,121,120,122,122,120,120,122,121,122,122,121,121,120,121,122,121,121,121,121,122,120,120,121,121,121,121,121,121,120
121,121,121,121,120,119,122,120,118,120,118,118,119,135,86,109,120,123,121,121,120,119,119,119,120,121,121,122,120,120,122,120,120,122,120,120,120,120,121,120,120,121,121,122,121,120,120,120,121,123,121,122,122,121,122,122,120,121,121,122,120,120,121,120,121,122,121,122,121,121,121,121,121,122,121,122,121,122,102,120,120,120,120,121,122,124,123,120,121,122,122,122,121,120,120,120,121,122,121,121,121,121,121,121,120,121,120,122,120,121,121,120,121,122,121,121,120,121,121,121,121,122,122,123,122,121,121,120
121,122,121,121,120,121,121,120,121,123,121,122,121,120,120,121,121,122,121,121,121,121,122,120,119,118,120,122,122,121,121,119,120,121,121,121,120,121,121,120,120,121,121,122,121,121,122,120,121,122,121,121,120,121,121,121,120,121,121,122,122,121,120,120,121,122,121,122,122,122,121,120,121,121,120,121,121,121,122,121,120,120,120,121,121,121,121,121,121,122,121,121,121,121,121,121,119,120,120,121,120,118,106,119,121,122,122,122,120,121,123,121,119,120,120,122,121,121,122,120,121,120,120,121,121,121,121,121
120,122,122,122,122,121,121,120,121,122,121,122,121,120,121,121,120,121,120,121,121,121,122,120,120,121,121,122,121,123,122,121,120,119,121,122,121,120,121,120,120,121,121,122,122,121,121,120,120,121,120,121,121,121,121,120,121,122,121,122,120,120,121,121,121,122,121,121,121,121,121,120,120,121,121,122,122,121,121,120,120,121,121,122,121,120,121,119,121,121,120,122,121,121,121,120,121,122,121,121,120,121,121,120,119,119,119,121,121,121,122,120,121,122,121,122,121,121,122,121,121,122,121,121,121,121,121,121
121,121,120,121,121,121,122,121,121,122,121,121,121,121,122,121,120,122,121,122,121,120,121,119,121,121,121,122,122,122,122,120,120,122,121,122,120,120,120,120,121,121,121,121,121,121,121,120,121,123,120,121,120,121,122,120,121,121,121,122,122,121,122,120,121,123,121,122,121,120,121,120,121,122,122,122,121,122,122,121,121,121,120,121,120,121,121,121,120,123,122,122,120,117,110,120,121,121,120,122,121,121,123,120,120,121,120,121,121,121,122,120,121,121,120,121,121,121,122,120,120,121,121,122,121,121,120,120
121,121,121,122,122,122,120,120,121,122,121,121,121,121,122,121,121,122,121,122,121,121,122,120,120,121,121,122,120,120,120,121,121,122,121,122,121,125,121,119,121,122,121,121,121,121,121,121,121,122,121,121,120,120,121,120,119,120,120,122,121,121,121,120,120,121,120,121,121,121,122,121,121,123,120,121,121,121,121,121,121,122,121,121,121,121,121,120,120,123,121,121,120,120,121,121,121,121,121,122,120,121,121,120,121,122,122,121,120,121,121,121,120,120,120,121,121,121,121,120,120,121,121,121,121,122,121,120
121,122,121,121,121,121,121,120,121,121,120,121,121,121,121,121,121,121,121,121,120,121,121,121,121,123,121,121,121,121,122,120,120,120,120,122,121,122,121,120,119,120,119,121,120,117,106,119,121,122,121,122,121,121,121,120,121,122,120,121,121,121,121,121,121,121,120,122,121,121,121,121,121,121,120,121,121,121,122,120,120,120,121,121,121,122,122,120,120,122,121,122,121,121,121,120,121,120,120,121,120,121,120,120,120,121,120,121,121,121,122,120,120,120,120,121,122,121,122,119,122,123,121,122,121,122,121,120
120,122,121,122,122,122,121,120,120,121,121,122,121,120,121,120,120,121,121,122,121,120,121,120,121,122,121,122,121,121,122,122,120,122,121,122,122,121,121,120,119,120,121,122,121,121,121,119,121,122,122,122,120,120,122,122,119,121,120,122,121,122,121,119,119,120,121,122,122,120,120,119,121,122,120,121,121,122,122,120,120,121,121,122,121,121,121,120,120,121,120,121,121,122,122,120,121,122,121,122,122,120,122,120,121,122,121,121,120,121,121,121,120,121,121,121,120,120,121,120,120,121,121,121,120,121,121,121
121,124,121,121,121,121,122,120,121,121,121,121,121,121,121,121,120,121,121,121,121,124,124,119,121,121,120,121,121,121,122,121,120,121,120,122,121,121,122,120,121,121,121,122,121,122,122,121,121,121,120,121,121,121,122,121,121,122,120,121,120,121,121,120,122,122,120,121,121,121,122,123,120,122,122,122,122,122,122,121,119,121,121,122,121,120,120,119,120,121,121,122,122,122,121,119,120,121,121,122,121,121,121,120,121,122,122,122,121,121,122,121,120,121,120,121,121,121,121,121,121,121,120,121,121,121,121,121
120,122,121,122,120,120,121,120,120,120,121,121,120,120,122,121,120,121,120,121,122,126,124,120,121,122,120,122,121,121,123,120,121,122,121,122,121,121,122,122,121,121,120,121,121,121,122,119,120,120,121,122,121,121,121,121,121,122,121,121,120,120,121,120,121,122,121,121,121,121,121,121,121,122,122,121,120,120,121,120,120,121,121,121,120,120,121,120,120,121,120,122,121,122,122,119,121,122,121,121,120,121,121,121,121,121,121,121,121,121,121,121,121,122,122,122,121,120,121,121,121,123,121,123,121,121,121,121
120,122,121,122,121,121,122,121,120,120,120,121,121,121,122,120,120,122,121,122,120,120,120,119,120,121,121,121,122,122,123,122,121,121,121,122,121,121,122,119,120,121,120,122,121,121,121,121,120,121,121,122,121,120,120,120,120,121,121,122,121,121,122,121,121,121,121,122,121,121,111,119,121,122,122,122,120,120,122,120,121,122,120,121,121,121,121,120,120,122,121,121,120,120,121,121,121,123,122,122,120,118,121,121,121,121,121,122,121,121,121,120,121,122,121,121,121,121,122,121,121,121,120,121,121,122,120,120
121,122,120,121,121,121,122,120,120,121,121,122,121,117,113,121,120,121,120,121,121,121,122,121,121,121,121,122,122,120,128,118,125,123,122,123,125,134,149,133,121,121,122,122,121,118,121,121,119,121,120,121,121,119,122,119,122,122,122,122,122,122,122,121,119,121,120,121,121,120,121,121,121,120,120,122,122,122,122,117,120,121,120,121,121,121,122,127,122,122,122,122,121,121,127,138,128,126,122,122,121,123,115,133,112,120,120,121,121,121,120,112,119,121,121,121,121,121,124,116,117,119,119,120,120,122,104,113
120,122,121,122,122,122,138,119,119,121,120,121,120,126,110,117,121,121,120,122,121,123,117,119,121,123,121,121,120,121,123,121,119,119,121,121,120,116,128,120,119,122,121,119,119,118,130,126,116,118,118,123,122,124,126,123,131,127,126,132,124,122,129,121,126,121,121,120,120,120,95,131,115,118,118,120,129,123,136,141,135,125,123,119,122,129,148,133,106,117,117,119,118,117,104,105,125,123,124,132,148,143,121,118,122,127,131,162,171,142,142,128,125,122,119,114,110,113,94,143,115,117,116,117,120,137,96,96
112,126,122,114,118,121,115,106,122,118,118,112,110,115,131,115,119,124,125,120,120,119,123,106,118,121,120,119,123,129,110,114,116,117,120,130,119,125,102,107,134,126,123,122,136,155,140,122,119,119,120,127,133,127,150,133,124,122,119,116,126,110,133,98,125,126,122,119,119,123,122,129,144,123,125,153,151,127,129,162,97,116,116,117,118,122,107,95,137,129,124,117,139,144,131,141,112,119,118,107,115,123,106,110,119,122,121,140,138,126,101,85,119,119,118,121,127,118,121,129,120,120,118,116,111,110,103,112
120,120,117,111,119,136,134,123,122,123,124,119,135,141,125,118,134,121,122,145,117,132,157,151,125,123,121,116,128,113,74,101,106,118,114,73,87,108,146,132,120,123,121,125,159,141,112,119,128,121,123,124,112,131,107,104,113,119,119,110,99,131,110,115,128,124,122,126,114,131,141,134,111,118,119,118,118,112,79,85,122,118,120,124,120,107,102,97,126,125,122,133,121,122,115,132,111,120,118,115,115,98,52,117,118,123,121,121,129,128,188,135,126,124,120,107,97,103,132,151,111,115,120,143,136,78,59,54
131,122,121,107,127,129,160,167,110,121,121,128,125,115,114,101,125,124,122,108,119,120,121,126,121,117,118,127,125,116,128,122,120,123,122,116,118,108,119,124,112,121,120,120,119,116,125,124,137,124,120,125,124,116,140,140,114,113,114,110,107,113,108,130,110,119,121,122,125,119,129,109,139,129,126,126,141,137,142,178,123,123,122,127,123,120,87,95,122,122,121,119,175,153,125,106,121,121,122,123,91,117,115,140,116,120,119,117,113,114,115,114,140,126,125,126,127,122,135,144,118,121,121,132,125,116,121,125
123,123,122,115,118,125,155,142,117,121,120,121,122,119,126,139,110,117,119,138,130,113,126,125,126,123,121,121,120,133,153,126,115,121,120,121,121,120,124,124,124,122,123,128,137,112,147,117,124,122,121,100,120,125,162,198,118,121,122,142,109,105,161,123,115,119,121,120,120,119,107,114,115,119,120,151,161,123,121,124,138,128,126,108,100,119,130,134,124,117,119,125,119,115,134,127,111,118,117,123,120,111,104,117,141,130,124,118,130,128,166,171,118,123,124,128,129,118,112,93,126,123,123,120,127,135,159,143
116,121,122,123,120,115,131,119,121,121,119,115,120,123,91,111,117,122,121,118,108,122,117,110,126,122,122,108,131,131,127,108,119,119,120,114,124,105,105,155,114,120,120,119,120,120,152,139,118,128,128,124,130,129,124,75,124,121,120,113,115,129,121,119,117,115,116,103,98,113,114,124,112,121,121,124,114,113,137,124,142,129,126,122,96,86,93,173,126,124,123,126,119,127,150,116,128,124,120,120,126,122,130,150,122,119,119,120,122,121,126,122,111,117,118,118,102,104,95,100,118,118,116,117,113,122,120,131
120,128,127,137,147,128,121,125,126,123,123,125,118,121,111,137,109,117,119,122,118,115,112,100,133,122,122,124,123,119,111,120,122,121,120,117,114,116,127,149,106,119,119,118,118,121,97,76,136,124,122,122,122,126,157,157,117,118,118,114,121,103,94,100,112,118,121,138,140,111,95,87,127,122,121,115,110,118,112,112,118,119,120,124,133,128,114,117,113,118,116,107,128,131,69,113,127,121,122,120,117,119,119,125,123,123,121,123,123,126,126,118,124,121,120,123,134,111,102,109,113,123,124,139,115,138,94,109
132,125,122,124,123,123,120,122,109,122,120,118,118,122,139,132,122,114,119,117,118,117,116,127,110,124,124,130,126,117,118,96,132,128,124,122,126,128,136,159,117,120,119,120,120,125,114,100,106,112,118,121,120,119,123,115,124,116,117,116,124,112,103,133,113,128,124,125,115,119,125,107,110,118,118,120,145,156,127,144,134,127,124,124,123,122,127,176,127,117,120,117,119,121,118,108,119,129,130,169,136,118,116,135,112,117,117,111,116,114,100,112,118,119,124,150,129,123,125,111,120,123,122,113,120,124,112,114
110,123,119,117,117,116,120,94,128,120,119,118,116,125,113,126,118,121,119,119,118,117,119,112,119,120,121,125,129,124,125,123,112,118,119,120,155,115,88,80,122,123,121,120,100,109,135,140,128,129,124,90,111,119,116,117,110,120,120,126,126,121,113,107,127,119,121,134,128,123,117,138,121,121,120,129,125,121,126,122,124,123,121,121,119,115,122,120,112,118,116,102,92,103,115,112,119,124,124,107,109,118,181,127,124,125,121,122,106,101,116,122,106,116,116,117,117,115,119,122,141,123,122,121,120,120,136,129
107,116,119,114,119,118,124,114,129,124,122,125,124,118,127,157,108,118,117,115,108,109,92,103,125,123,124,142,123,109,118,110,132,124,121,120,119,122,120,148,115,118,120,116,110,115,122,110,120,122,123,126,121,120,118,118,114,119,118,118,125,120,114,114,131,126,126,135,129,105,134,123,121,123,122,116,122,104,119,110,117,121,122,122,114,117,120,127,122,122,122,121,120,117,66,78,128,122,121,120,120,122,134,122,107,118,118,119,118,115,111,112,123,124,123,147,129,117,108,107,116,120,121,124,120,119,116,112
125,118,119,120,123,121,130,131,125,123,121,120,104,115,125,119,133,126,122,121,116,114,128,170,119,121,120,123,125,126,131,127,118,125,124,139,128,121,121,117,116,121,122,119,110,100,119,110,118,119,119,124,128,124,123,122,121,123,122,129,117,117,113,105,121,122,120,106,119,129,132,134,124,121,121,118,119,126,117,111,115,120,119,126,121,119,126,112,125,123,123,118,119,123,123,136,111,117,118,120,113,106,92,102,123,120,118,107,117,119,132,148,105,118,119,123,150,121,129,102,117,120,119,122,120,116,106,107
116,122,122,126,96,108,124,100,119,119,120,118,118,118,120,124,118,121,119,113,113,114,113,110,114,120,121,130,135,122,150,140,124,126,122,129,133,132,163,121,114,121,121,125,123,116,114,120,119,116,117,119,119,119,123,136,115,122,122,120,118,122,125,115,118,122,120,118,119,117,94,110,123,123,120,122,119,118,144,129,122,122,121,125,122,121,142,126,121,121,121,120,107,105,121,110,127,123,121,121,123,117,116,133,123,123,123,123,120,122,132,123,121,122,120,123,120,120,119,112,128,124,123,126,122,123,135,131
130,121,117,121,132,139,99,128,111,123,118,119,147,138,107,95,136,124,120,119,121,125,143,144,102,114,115,106,131,121,112,91,140,127,125,122,121,123,135,157,132,124,122,120,120,120,128,123,113,119,119,119,104,119,108,107,129,127,127,131,137,173,178,146,115,120,118,121,120,119,127,120,129,124,122,122,121,120,121,115,114,118,118,109,118,117,106,103,117,119,121,123,122,121,135,117,122,123,121,123,131,127,105,93,134,124,122,126,125,114,139,159,115,121,121,120,96,98,106,105,116,121,119,123,123,120,123,111
121,120,121,127,122,125,98,125,120,123,122,130,140,130,125,126,111,117,119,118,118,119,113,94,143,126,122,118,137,133,123,125,119,122,124,141,113,113,116,110,119,121,120,122,119,106,128,108,114,123,124,121,121,133,177,123,114,120,119,117,119,119,139,133,122,123,119,120,118,115,109,101,121,122,121,120,124,121,125,111,125,120,121,122,138,129,144,132,116,121,120,121,115,118,122,123,127,123,123,136,137,115,113,119,121,121,120,116,103,116,144,131,132,123,122,120,121,116,118,131,112,120,120,126,118,112,121,126
114,119,118,111,106,120,123,117,128,126,123,99,104,122,150,144,114,121,121,119,118,122,126,117,122,119,119,116,113,118,127,111,127,122,120,120,120,129,102,150,124,123,122,123,121,119,122,104,116,121,120,121,121,119,124,125,119,123,122,121,140,129,122,111,139,124,124,127,143,163,138,136,113,119,120,118,124,123,99,97,143,127,126,125,117,119,99,141,116,122,121,121,121,121,128,113,122,123,122,123,116,126,137,125,123,124,122,122,146,151,144,150,131,122,121,118,104,106,119,130,115,122,121,119,120,127,119,113
117,117,117,114,97,110,120,125,123,124,120,124,129,130,123,114,117,120,121,121,122,133,120,113,121,120,120,118,107,120,115,138,120,123,119,119,132,118,106,96,117,122,123,131,116,120,116,126,119,119,122,129,123,102,123,112,118,121,121,121,123,123,131,113,117,121,120,123,132,119,91,98,120,121,121,124,119,121,129,148,127,124,122,117,118,121,120,75,123,121,121,122,119,120,130,160,120,124,122,121,113,116,119,120,113,120,120,122,124,129,132,111,126,119,117,114,131,133,120,119,120,126,124,121,117,119,103,119
127,121,121,120,125,125,155,135,122,123,122,130,146,146,146,162,119,122,120,116,133,124,138,119,119,120,118,111,130,118,109,115,123,125,122,119,123,126,142,127,117,120,121,122,122,113,131,113,127,122,121,122,127,122,136,106,125,119,118,120,119,113,133,137,122,123,122,112,125,128,100,113,109,119,119,120,116,121,132,117,137,124,123,122,120,121,116,88,124,121,121,124,134,147,126,147,114,117,117,120,116,111,109,98,124,123,122,136,135,122,133,125,123,122,123,126,123,128,134,130,114,121,121,120,120,114,109,111
117,119,119,122,121,119,114,101,133,123,122,121,134,128,128,164,114,123,122,123,123,119,121,99,118,118,118,123,119,118,125,121,131,124,122,124,121,122,123,116,114,120,120,115,110,121,121,118,118,118,117,113,93,105,97,128,111,119,118,118,118,116,78,108,129,124,124,127,155,164,127,128,115,120,121,125,122,120,146,130,118,117,117,115,119,119,136,123,118,122,119,119,123,122,119,121,117,123,122,123,128,116,90,88,121,121,121,122,120,121,126,137,113,118,118,119,118,118,107,109,134,127,126,125,129,142,118,115
120,121,121,121,121,117,117,127,128,122,119,114,118,119,127,114,115,120,121,116,119,124,148,129,125,120,121,132,159,111,112,127,121,123,122,129,125,125,158,134,132,124,121,118,119,119,116,141,112,121,121,123,123,120,140,113,121,120,119,114,121,117,120,111,120,120,120,119,120,121,121,113,114,119,119,116,125,116,144,130,128,123,122,119,108,117,113,121,120,122,120,121,122,126,120,115,125,123,122,120,122,122,127,148,119,116,116,122,120,119,116,110,123,122,121,124,121,114,127,130,111,116,117,122,114,120,116,110
126,123,122,123,124,130,121,134,118,121,120,119,120,124,126,116,124,123,122,123,126,134,128,141,117,120,120,122,114,111,109,109,118,122,122,131,157,129,158,109,128,121,118,119,120,127,115,144,118,123,122,122,121,118,126,107,113,121,120,115,116,113,111,103,121,121,120,114,124,121,114,110,123,121,120,123,122,122,117,115,126,122,121,126,124,120,116,116,121,120,119,124,122,120,116,125,117,121,120,119,105,117,118,111,134,125,123,123,123,123,127,119,120,124,121,127,128,121,117,122,115,117,117,117,124,115,118,108
114,121,121,125,144,152,135,95,122,123,120,118,119,110,104,123,120,123,122,133,110,102,143,146,126,121,120,113,122,124,136,120,113,121,122,117,119,121,124,111,126,125,124,126,112,122,130,136,117,121,119,118,116,118,114,108,120,122,121,118,115,123,116,130,125,125,123,139,142,133,109,109,118,119,121,119,118,123,122,118,117,120,120,116,116,118,137,116,122,120,119,113,122,123,118,125,113,117,117,113,137,106,105,102,129,119,120,124,154,105,126,109,107,122,120,115,118,129,116,106,108,120,120,124,122,121,119,108
122,122,122,126,123,122,109,124,112,119,118,111,105,118,122,107,119,124,125,141,135,123,135,155,131,120,119,104,88,108,116,128,120,120,121,151,128,119,115,122,121,124,122,123,138,117,133,116,111,119,120,104,109,132,93,122,125,119,119,119,133,129,124,127,118,124,122,114,109,106,127,114,125,124,120,124,128,120,126,112,118,117,117,93,103,113,118,142,126,125,121,123,123,124,122,96,106,118,119,119,119,119,116,104,135,125,125,141,131,135,128,142,113,118,121,139,130,119,122,108,118,119,119,120,130,125,130,128
124,120,119,117,102,117,128,147,126,123,121,130,140,133,117,145,133,124,123,122,121,121,136,129,116,120,120,120,121,128,116,108,122,124,122,127,118,118,110,112,117,120,119,122,120,116,113,117,132,121,121,123,121,115,148,149,121,124,121,119,103,94,152,110,131,123,121,117,108,114,124,157,114,119,118,126,126,119,111,115,128,123,122,123,122,122,138,134,117,122,123,160,168,151,128,115,116,119,118,116,90,111,102,103,117,123,122,121,118,114,105,109,118,118,119,121,120,121,122,107,119,121,121,128,133,126,125,131
117,126,126,149,136,105,112,122,116,118,120,121,119,121,122,99,112,121,121,121,127,120,104,115,133,125,123,108,117,114,64,95,129,121,121,122,122,121,128,154,118,122,121,123,125,119,117,109,128,123,123,122,129,122,129,114,118,120,122,126,109,105,122,118,113,119,119,122,124,120,113,104,114,120,119,108,96,91,116,111,136,125,122,118,103,109,129,129,108,119,119,126,126,122,110,114,126,120,119,120,120,122,115,103,123,122,120,117,119,121,123,111,113,120,120,150,133,120,118,101,137,124,122,129,122,120,133,155
116,122,121,122,117,116,120,124,124,121,119,120,121,120,122,120,115,118,119,127,124,120,130,119,120,121,122,122,121,123,145,125,121,123,121,123,125,121,130,119,118,122,123,124,135,146,148,142,127,122,121,121,114,127,124,124,127,124,119,114,140,124,126,140,115,120,121,122,118,118,127,100,127,122,122,118,119,122,125,132,123,123,122,122,117,117,121,127,117,120,120,121,118,129,129,115,117,123,123,127,118,120,118,123,122,121,119,119,123,123,115,122,119,122,121,121,121,120,90,94,121,121,118,104,114,118,123,119
128,122,123,136,145,125,128,164,120,123,121,116,120,125,138,98,118,125,126,132,147,132,125,110,119,118,118,129,136,122,120,129,123,124,121,120,120,120,125,125,116,119,120,137,112,118,123,108,120,119,120,118,119,123,141,155,137,127,121,122,125,119,100,138,112,120,119,111,110,121,115,117,125,122,121,123,128,138,136,117,115,117,120,120,119,118,112,103,112,122,124,136,136,133,126,114,118,120,119,99,112,124,106,107,119,122,122,125,125,120,117,90,104,118,119,119,120,120,114,107,126,122,121,120,118,121,119,134
115,121,121,120,119,118,121,121,123,123,127,162,150,126,123,108,114,118,118,114,124,139,99,122,128,124,121,118,122,125,125,144,117,122,122,119,113,120,118,104,125,124,121,121,120,121,120,133,121,121,121,125,119,120,154,122,118,121,120,121,136,128,119,117,113,119,119,118,124,119,116,118,130,120,121,123,121,122,113,121,113,119,117,98,119,117,116,116,116,121,120,114,112,120,117,101,119,119,119,123,136,128,128,135,120,122,121,122,122,123,141,125,121,125,125,134,128,119,122,109,117,120,120,119,120,119,119,102
119,120,121,121,121,116,121,135,118,120,121,123,144,108,65,109,130,123,121,121,119,121,111,123,121,119,118,119,118,117,118,115,121,124,122,122,120,122,121,107,118,119,120,121,120,121,121,130,114,119,119,120,119,120,110,104,117,119,118,118,129,122,119,119,115,123,122,129,169,177,125,105,132,122,121,121,123,123,137,126,116,122,122,124,122,118,119,114,114,122,121,118,123,121,120,114,119,118,119,119,125,119,121,110,125,123,122,124,127,123,123,132,119,121,120,126,122,127,92,119,107,120,119,123,137,123,114,93
146,126,124,127,152,133,150,144,117,120,121,141,137,116,155,130,122,122,121,121,122,128,134,123,124,120,122,121,121,122,122,135,125,119,119,119,123,122,125,130,123,124,121,120,125,128,134,127,118,120,121,125,120,120,124,118,120,120,119,118,118,117,117,114,123,123,122,122,129,125,129,119,124,123,122,117,146,131,122,129,119,122,120,120,120,122,123,119,125,121,121,118,115,123,169,144,123,122,121,135,111,109,117,118,123,122,122,123,116,122,124,130,124,125,121,102,108,120,121,118,116,119,120,122,119,119,117,108
125,120,120,115,107,106,120,144,114,119,120,123,121,131,146,119,116,120,119,120,120,118,96,120,118,121,120,119,124,132,121,112,119,121,121,129,124,118,115,121,122,122,120,120,121,120,118,113,122,121,122,124,124,122,120,127,122,118,119,127,122,121,129,126,119,124,121,112,111,122,132,121,124,123,121,121,122,123,127,122,121,122,121,121,118,125,124,134,130,120,121,122,122,124,123,129,131,125,124,132,137,120,122,140,117,122,121,122,122,123,109,107,113,122,122,122,121,124,119,116,118,118,118,119,119,119,124,120
117,119,121,121,121,121,120,125,117,121,121,121,125,125,112,115,126,122,120,117,106,114,97,118,136,123,119,122,127,132,134,150,121,122,121,122,131,125,139,123,118,122,123,127,151,119,123,124,117,121,120,120,119,122,133,112,116,118,120,123,120,122,120,119,123,122,121,123,124,124,135,120,121,121,121,122,120,119,112,114,120,121,121,120,123,121,118,116,119,121,120,121,110,126,138,118,121,123,123,136,120,118,112,118,118,119,119,118,116,110,67,112,118,118,120,121,126,126,127,114,119,122,121,122,119,120,123,112
113,119,121,140,148,123,116,110,122,121,122,123,121,126,123,123,126,121,119,114,113,133,101,117,118,121,123,126,147,118,122,114,116,122,121,123,117,118,105,123,133,127,125,124,125,126,135,116,116,118,118,121,117,110,121,125,120,120,121,119,118,116,109,136,116,124,123,123,113,128,124,97,118,120,120,123,118,123,120,131,128,123,123,125,136,149,112,111,121,123,123,122,120,118,121,137,107,118,117,133,137,116,54,91,132,124,122,124,124,121,124,139,123,123,121,118,122,123,121,120,114,120,121,121,122,122,138,121
122,122,121,122,121,114,138,122,112,122,120,122,130,124,110,104,122,122,122,135,127,124,125,112,118,120,120,121,119,116,116,114,125,122,122,132,121,125,141,120,115,121,120,117,109,115,124,110,121,122,120,117,98,118,107,134,127,122,121,131,136,131,119,133,113,120,119,119,127,129,128,117,133,125,122,123,124,131,139,126,113,119,118,120,120,117,95,113,118,121,121,120,119,119,121,103,116,116,118,119,120,121,119,116,115,120,119,114,102,110,83,110,122,123,121,120,123,121,121,109,123,123,122,128,129,121,120,131
130,123,122,131,124,118,139,130,110,118,120,133,135,122,115,106,116,119,118,112,122,123,122,127,131,125,124,127,124,119,114,149,118,121,121,119,115,114,106,109,117,120,119,119,118,120,124,112,121,120,121,122,122,106,126,120,129,126,123,129,121,125,145,126,127,122,120,120,104,119,118,120,114,118,118,119,127,113,108,121,125,123,122,130,133,129,134,128,115,120,119,121,123,120,114,107,114,119,118,119,113,121,118,102,121,123,122,127,124,123,128,134,115,121,121,128,121,120,118,112,116,120,120,121,126,117,100,105
120,124,122,123,121,114,131,116,112,119,119,121,129,122,120,105,133,121,121,118,124,136,127,156,115,122,121,115,118,118,119,95,115,121,120,128,127,116,117,116,118,120,119,119,133,122,113,113,129,124,121,121,117,122,125,124,114,119,119,121,122,127,121,121,115,118,119,123,120,119,117,100,135,126,122,135,124,125,135,161,116,119,120,126,133,128,90,127,131,124,123,122,121,121,119,123,113,119,120,120,115,117,117,121,130,125,123,122,121,122,119,126,119,120,121,120,119,120,121,121,126,121,121,125,118,113,120,129
118,122,123,126,105,105,119,108,126,123,121,118,110,117,123,147,114,121,120,121,120,120,116,103,123,121,121,122,122,123,124,135,115,119,120,125,121,122,123,117,134,123,122,126,122,122,124,126,118,120,119,117,130,119,119,115,129,123,121,118,121,129,130,122,117,123,122,120,121,121,118,112,122,119,119,125,119,120,125,132,121,122,121,126,133,122,129,120,128,123,120,120,122,112,123,114,122,123,121,125,130,116,126,121,118,120,117,120,119,123,114,122,111,117,117,118,114,116,99,109,127,124,121,124,125,125,167,155
111,119,120,123,121,118,121,125,125,123,122,121,125,125,139,119,120,121,122,116,118,123,135,116,115,121,119,108,123,143,120,109,122,121,121,119,118,118,119,132,131,123,121,122,120,118,125,141,110,118,118,119,126,130,142,117,144,126,122,111,104,113,135,120,113,120,121,131,133,122,126,128,113,118,118,110,119,117,110,88,132,124,123,131,119,123,129,172,113,119,121,118,117,113,88,103,121,117,116,125,124,119,113,117,120,123,123,126,142,141,86,109,117,121,120,111,113,110,115,105,122,120,120,118,109,120,116,115
103,118,119,124,124,126,113,120,121,121,121,114,125,109,117,105,132,121,122,131,119,130,122,138,127,123,121,120,121,120,118,119,121,125,123,118,118,117,116,131,119,119,118,119,120,123,116,104,114,120,121,119,121,119,120,110,124,122,121,119,122,131,131,132,108,118,118,121,119,127,94,102,133,124,122,125,126,127,149,135,116,123,122,135,126,120,108,105,103,119,119,117,129,120,84,96,133,122,119,111,114,120,128,139,115,122,123,118,114,100,123,120,134,122,121,143,157,127,129,129,141,124,123,129,120,117,111,127
111,122,124,143,158,138,121,109,112,117,118,116,120,125,142,121,143,127,122,117,121,123,118,117,116,119,117,127,139,121,127,136,106,118,118,117,116,122,116,96,134,124,123,119,112,112,139,129,118,122,125,141,146,118,128,120,121,123,123,124,116,113,136,107,116,119,117,114,119,109,106,110,137,123,121,131,119,120,127,148,116,119,119,106,108,122,123,113,119,123,122,120,118,117,119,129,122,122,121,125,121,118,114,113,129,123,121,123,125,125,128,132,112,122,122,144,157,123,118,102,124,122,120,118,129,122,143,126
116,119,117,115,116,130,133,128,121,121,118,111,109,118,115,96,114,119,120,126,123,118,120,105,116,121,121,112,111,117,121,136,121,123,121,114,122,133,143,114,120,119,119,118,120,118,115,108,136,125,126,133,125,125,132,139,111,118,120,119,109,119,103,113,121,121,120,120,123,120,120,119,125,125,122,130,123,121,129,121,114,118,119,123,128,126,120,119,131,120,121,122,123,122,126,133,112,124,122,117,142,149,135,137,126,121,122,134,153,117,78,109,127,121,123,122,121,130,124,119,143,128,125,121,122,120,141,136
118,119,121,121,119,123,125,132,113,117,118,124,139,122,123,115,132,128,124,129,120,123,96,123,128,122,119,108,106,121,174,139,107,119,120,118,111,119,112,111,120,123,121,125,123,115,125,102,126,120,120,121,120,111,119,146,115,118,120,124,134,127,121,115,114,121,120,119,116,121,105,119,122,121,119,108,108,99,66,113,111,119,118,113,114,111,98,106,126,124,123,121,121,126,131,129,117,118,119,119,119,118,117,107,115,120,119,119,118,118,119,106,114,119,120,119,121,127,118,107,124,124,122,133,151,123,113,117
128,125,122,115,119,120,136,117,123,119,120,124,123,128,129,133,121,120,120,115,117,119,121,111,104,119,119,119,119,120,126,93,119,124,121,113,96,118,135,125,117,119,120,115,120,123,122,129,122,121,120,124,116,109,135,131,114,123,125,147,145,131,114,127,126,125,122,119,129,122,124,129,108,119,119,124,118,118,112,87,128,125,122,124,126,131,152,157,111,117,118,124,130,117,117,104,129,120,121,118,127,108,126,117,109,117,117,116,134,121,101,120,132,126,124,121,108,118,126,149,111,118,116,110,122,119,112,103
132,125,123,114,122,122,115,112,113,120,121,123,121,120,133,130,121,117,118,119,120,120,121,118,123,122,121,122,121,120,122,121,118,125,124,129,116,115,98,93,133,125,127,140,157,130,119,145,120,119,119,120,117,119,131,106,125,123,122,122,121,122,122,122,119,123,122,122,121,123,117,121,119,118,118,118,115,116,80,114,120,120,121,125,149,136,130,119,118,124,122,122,120,125,113,106,132,125,123,117,120,130,99,140,124,121,120,121,120,121,119,117,108,119,120,130,121,114,98,108,121,122,120,120,125,118,120,119
132,122,123,131,115,124,162,131,119,121,121,110,109,119,119,138,119,122,120,124,120,122,118,108,123,121,120,119,119,119,110,143,123,122,122,123,119,119,124,118,127,122,121,122,123,123,148,141,112,119,118,117,117,118,123,108,130,120,121,119,118,121,110,127,110,120,119,118,105,119,119,111,124,121,121,121,120,119,112,103,142,128,125,130,134,126,112,146,115,119,118,116,117,119,117,111,103,121,125,131,146,125,105,103,149,131,126,124,122,124,182,160,116,120,121,124,123,126,112,107,112,120,120,121,120,119,118,93
114,118,118,112,120,121,113,104,123,122,121,122,120,121,116,117,113,121,120,111,115,118,125,120,114,121,121,122,122,121,116,104,117,122,120,119,118,122,66,117,115,120,120,120,120,120,121,123,128,123,121,122,122,120,121,115,130,120,119,121,122,125,112,124,119,121,121,121,119,119,116,121,110,118,116,128,111,115,122,103,150,130,131,166,139,120,124,156,113,121,120,109,118,138,99,103,118,122,121,114,118,118,137,109,117,119,120,124,119,116,119,117,116,117,119,120,119,115,97,117,124,122,121,122,122,123,126,126
124,122,120,122,128,119,102,115,128,121,121,120,117,125,145,131,128,121,120,118,116,116,110,132,113,121,121,128,122,120,115,103,111,118,119,120,119,117,118,113,120,121,120,122,120,118,121,114,123,123,120,121,120,120,111,126,112,118,119,114,119,115,124,139,135,126,123,123,126,129,130,81,114,119,118,121,142,128,83,126,117,122,121,122,120,121,120,109,125,121,121,121,120,120,124,127,114,118,118,119,118,117,102,99,116,121,121,118,118,120,118,105,120,122,121,120,121,124,119,115,115,118,117,114,119,118,113,115
126,120,123,128,129,134,138,139,135,126,124,122,125,129,129,136,121,123,121,124,125,125,145,125,114,120,120,123,121,119,120,116,120,121,121,124,123,121,122,122,115,118,117,116,120,120,110,119,125,125,123,124,121,120,148,146,133,127,125,124,127,128,149,110,118,120,120,121,120,118,118,135,120,122,121,122,120,121,124,118,120,120,122,122,121,120,123,123,123,122,120,121,120,119,118,118,118,121,121,121,120,120,117,115,113,121,121,122,121,124,140,118,124,122,121,122,121,118,116,125,123,124,121,121,120,122,140,130
116,120,120,120,120,119,117,108,121,122,121,122,121,122,123,119,115,121,123,125,126,120,122,125,107,118,118,118,118,115,132,116,128,124,121,112,116,125,119,104,112,121,121,122,120,121,111,105,118,120,121,123,120,116,111,119,126,118,119,129,93,111,130,135,118,124,122,125,158,166,119,114,125,123,123,122,121,121,116,126,120,123,122,121,119,120,122,124,117,119,121,122,121,120,120,112,119,121,121,124,118,120,121,124,119,122,120,118,112,111,116,115,110,121,121,121,119,117,107,110,138,124,122,123,123,127,156,144
121,123,122,122,121,119,117,123,114,121,122,118,119,120,114,106,116,118,122,146,123,124,122,114,121,121,120,117,111,100,110,114,127,126,123,132,130,123,128,139,118,118,118,124,124,126,129,129,117,118,119,108,108,119,119,113,123,124,123,117,105,116,142,129,126,122,121,139,112,118,118,143,122,123,122,120,120,119,117,100,125,122,122,121,120,122,146,150,120,120,120,120,120,122,120,127,121,120,119,118,113,119,110,117,111,120,120,129,130,124,145,145,133,126,123,121,119,112,102,108,130,124,122,123,124,120,131,179
112,120,121,122,120,117,116,105,125,121,121,123,122,123,128,123,114,119,120,121,120,120,119,109,114,120,121,122,120,119,119,111,121,122,120,121,121,120,111,125,124,118,118,119,118,113,86,123,128,122,119,115,107,120,101,121,125,126,124,120,97,104,117,120,117,122,121,120,121,122,141,132,120,118,118,119,119,123,83,113,112,120,119,120,122,119,118,102,127,122,120,121,121,121,123,129,123,123,121,124,122,120,109,133,112,117,118,117,125,128,124,117,143,124,123,124,121,121,132,126,127,125,123,124,125,130,127,173
115,121,120,122,121,121,121,105,117,120,121,122,121,121,135,130,121,122,123,132,189,145,108,119,132,121,118,109,110,109,131,133,118,122,120,121,119,121,103,111,126,123,123,121,121,120,128,147,126,120,121,122,122,124,125,120,113,122,122,122,123,127,137,112,133,125,123,124,125,112,120,133,115,121,120,121,117,117,115,113,118,120,120,124,122,120,132,118,118,118,120,121,120,119,119,104,125,123,122,113,111,121,137,139,118,123,121,120,119,120,122,114,123,119,120,121,121,118,121,124,113,120,122,128,125,120,131,131
136,124,121,120,122,116,113,99,111,121,121,122,121,117,115,107,118,120,118,120,120,119,118,130,118,118,119,124,125,121,121,121,117,117,120,120,118,121,120,116,119,123,121,113,108,121,124,123,106,118,115,111,118,120,110,104,144,129,126,127,116,141,160,129,115,117,118,120,121,120,105,117,117,122,122,121,122,114,141,121,122,124,124,139,136,128,152,129,117,119,119,119,118,118,119,128,119,121,121,122,123,124,121,112,119,122,121,122,121,121,109,109,123,121,118,111,120,120,92,105,117,121,121,121,122,130,159,145
117,122,123,125,123,118,109,103,117,119,117,112,118,119,116,109,112,120,121,119,119,131,122,123,127,123,122,128,145,105,123,127,133,126,124,133,122,122,116,128,109,118,119,117,119,117,114,101,139,122,121,122,122,122,131,157,107,117,117,119,115,111,70,108,119,122,120,117,115,118,114,111,118,119,120,121,119,121,125,119,123,120,119,114,116,123,102,118,112,120,120,126,118,117,127,120,122,123,122,132,121,120,122,112,117,122,122,124,106,113,122,121,122,123,122,124,122,105,95,110,125,118,122,136,119,115,129,126
122,119,118,117,115,119,119,123,111,118,116,104,157,125,115,98,134,127,127,150,138,128,120,129,109,119,121,121,122,124,154,114,120,123,123,137,141,134,126,124,136,123,121,123,111,102,104,117,114,120,121,117,140,124,85,108,128,121,117,92,114,116,125,128,120,123,121,153,141,123,112,119,114,118,120,115,123,118,119,113,119,120,121,121,120,118,116,115,124,123,121,114,119,127,100,117,119,121,120,121,121,123,127,118,121,122,122,133,123,120,109,115,125,122,122,126,124,120,131,122,113,119,119,115,116,122,120,121
140,125,123,123,129,124,128,132,119,122,121,120,127,113,119,116,117,121,121,113,123,124,131,126,121,122,121,114,119,127,121,136,114,119,120,115,99,121,118,105,122,125,122,119,133,135,131,154,129,122,121,122,125,130,150,149,125,120,121,122,121,122,114,111,113,119,118,111,106,117,106,123,113,123,121,123,128,130,109,109,128,119,119,121,121,122,123,121,107,117,120,122,126,112,142,117,120,120,118,120,126,114,73,106,128,125,122,113,130,137,131,138,111,119,118,115,120,122,127,113,117,120,120,117,124,119,119,111
119,121,121,119,125,122,102,112,112,117,117,119,122,110,118,106,117,117,119,129,134,111,117,117,123,125,122,122,123,128,124,129,117,123,122,122,121,125,117,103,125,120,122,137,146,125,147,139,117,125,124,120,100,99,137,117,124,123,123,128,126,124,137,113,115,120,120,120,121,121,96,119,122,121,120,120,119,119,117,117,122,122,118,118,118,118,66,124,121,123,123,124,123,121,125,123,112,122,121,120,118,119,122,107,123,119,118,120,120,118,122,123,132,122,122,122,122,123,130,128,119,123,122,114,106,120,123,118
126,121,119,121,122,125,121,133,116,122,123,117,113,123,123,106,115,118,119,119,118,116,129,104,117,119,119,122,125,126,124,125,113,120,119,117,94,98,91,105,116,120,119,121,139,112,124,111,129,125,123,120,120,123,128,141,112,117,118,128,124,120,116,100,117,120,119,123,130,120,113,121,117,120,120,115,120,99,113,108,124,124,121,122,122,115,143,141,129,123,121,121,121,121,113,134,114,122,122,122,120,118,120,116,124,121,124,174,128,120,130,133,114,118,119,117,129,125,112,111,136,126,122,118,117,123,126,143
114,121,121,122,123,122,132,125,124,120,118,120,121,124,112,115,112,120,120,122,121,120,120,109,117,121,121,123,122,120,122,116,119,121,120,121,121,120,121,117,125,120,121,121,121,122,126,123,119,122,121,121,122,122,101,115,115,122,122,124,127,125,165,134,125,123,121,125,120,120,111,123,111,118,118,117,117,116,95,104,128,120,121,107,103,115,136,133,120,121,119,116,117,122,120,119,120,121,119,125,114,122,142,105,106,120,121,113,94,105,111,133,132,122,120,121,119,128,150,127,111,123,125,139,121,119,135,105
123,122,122,127,128,119,125,112,116,121,120,120,119,121,123,130,121,122,121,125,140,126,129,124,119,121,121,122,120,119,117,117,116,120,120,120,120,119,113,107,136,126,124,118,119,124,158,149,120,121,119,112,132,120,121,114,123,121,121,112,121,123,136,130,117,124,123,123,122,122,120,137,124,118,119,119,119,118,122,108,130,123,125,144,154,128,121,144,125,122,121,120,73,86,108,114,110,118,116,101,96,108,108,102,120,123,122,127,122,123,149,135,119,121,122,122,121,121,96,106,119,122,120,121,118,117,134,111
120,123,123,121,126,124,133,124,108,114,117,125,121,116,103,110,133,125,123,117,121,120,147,151,123,123,122,121,121,118,115,112,111,119,119,119,123,128,112,118,138,130,129,159,194,140,127,144,107,119,118,117,114,117,114,107,117,117,119,120,121,124,126,116,119,122,121,120,118,117,127,113,108,119,119,122,123,123,122,125,130,124,122,119,122,139,128,132,112,122,121,117,120,114,123,117,114,119,118,116,119,113,93,97,126,122,122,122,120,122,126,155,112,121,122,123,131,132,135,127,126,123,124,138,122,126,105,123
118,122,122,124,121,117,131,113,117,117,117,119,120,123,133,121,120,125,123,118,130,127,119,128,127,120,120,120,120,120,127,136,112,119,119,120,129,121,115,110,129,122,121,121,121,128,144,144,138,128,125,125,129,127,111,134,113,120,119,120,120,116,107,113,119,121,122,122,119,104,113,118,120,119,119,120,120,122,124,121,118,119,120,122,121,122,132,124,103,117,118,116,102,122,118,97,151,127,125,118,109,139,133,159,115,123,120,122,123,115,104,98,114,117,116,118,119,111,108,122,124,122,122,122,122,121,132,143
