0.9524036173250832
1.0524658359964603
1.05028060556902
0.36777872719374616
0.6436704966835683
0.27492014037458795
0.06514172167087984
-0.49537326048568375
-0.44092798182209236
-0.3801583700007326
0.06675782022736831
0.41156713346673046
0.2989572728628366
0.2052145958215929
0.499483050690261
0.7246293147298578
0.5197082370278341
0.34906237007862106
0.21359608221198495
0.47993279606622136
0.3205787613718399
0.19451718091401193
0.09948714388923904
0.031594025838869486
-0.013775974421485386
0.32737656735164294
0.5961863323873607
0.7979718049400544
0.9414131079900425
0.6679376103632967
0.4422179929705322
0.26458162907186455
0.5001014476955904
0.6885079055815027
0.8322011557499791
0.9362491588999725
0.6383150325299835
0.39950768181357527
-0.15168396913050725
-0.19837563962246485
0.15659555463371766
-0.2896659495213894
0.10953586059426179
0.43230948709402933
0.31250060605016816
0.580720091428831
0.4146784319688415
0.6455919653386509
0.8195304248353804
0.943679414815839
0.657845051756425
0.42512465472941996
0.6131129794251751
0.39384650330469917
0.22412739726445374
-0.26951298913018923
0.09817661444548875
-0.7041001591846655
-0.9448682464993925
-3.682052970258537
-2.4349821876935582
-0.2687030611765677
0.3320106658092851
0.026952161604303027
-0.2472321978777822
-0.48013989902603493
-0.2997970508624297
-0.5308099766022044
-1.0826175045576223
-1.8725583092971707
-3.9355850895263638
-1.7946231541445004
0.3066397518255035
-0.654151316232682
-1.4471018900278225
-3.177147237043781
-1.5441487535430318
-0.6002994760877806
0.12271771263793496
-0.8258720924624126
0.24595571996000665
4.3801599439751735
4.197944217815319
2.802211852797142
3.093706326906035
1.4268538812812674
1.945696982242986
-0.9611569411689569
-1.7219110705865202
-0.7495360541542269
0.08280270692817027
-2.557575625529218
-0.8905937308295999
-0.6351359644760575
2.8947795135761414
2.290178788847581
2.463891905745743
3.274073307474655
2.368485468199804
1.6085868382203472
2.8444731850049836
-0.2595760688029096
0.274178555940767
0.010898169541616522
-0.15618026509103006
3.0689267698855405
1.1520005151598842
1.0866655940990668
2.513277881191576
2.874128334237052
0.8998216050620145
0.44961225383840003
1.973096306478547
0.9632783414082098
0.907146215981685
0.5104006675891155
0.5880620380403943
-0.06755121688968757
0.18183577035846793
0.035598351254535573
-0.05955181249458678
-0.11488971120747524
-0.14069669442739768
0.5915626721791795
0.7970695048406798
0.5742463909237145
0.3879482120856018
0.23951109435873444
0.4954565810706602
0.32844081197345387
0.5655914081931426
0.012451297841539088
0.3201743663018356
0.5684598758912245
0.7594940518081241
0.8992060071553154
0.6267304035069026
0.7736020854517546
0.8843126954617516
0.963397785501385
0.647547236575926
1.1340680029271537
1.1413317899697286
1.1346879653002824
1.1197919614321519
1.100869809433685
1.0809093592776045
1.0618793798607196
0.6762625623895575
0.7477710545677693
0.44426997182885325
0.21736599424931086
0.42553382097737064
0.2339110905855703
0.46303785760822563
0.28166690090519086
0.5134713032657316
0.32978357231794675
-0.18107033654285198
0.1687249009910331
0.08691831444254944
0.39705286689313746
0.2720660899270526
0.5402294329082026
0.7460558145628448
0.8961740307413665
0.999195237493765
1.0642978804683634
0.7316029784958695
0.8321247148291112
0.5402377495762642
1.0504133572290015
0.7105712820932648
0.8082519887554236
0.5164682559896663
0.29122506922620006
0.4945728845337801
0.6631079874382348
0.4275880597576017
0.6136132718059588
0.7617539937592462
-1.7065968623934191
-0.6565437208427582
-0.5199270012246596
0.34500451569845103
0.28517314766394397
0.2247422802783324
0.16873449054502576
-0.24871712536372534
-3.8901300238155865
-2.9876022869251315
-2.549129747332297
-1.0431706598299058
-0.21932843574386285
0.39765650463486746
0.466340622664311
0.8413349251089255
1.090680743412826
0.872204827189209
0.6649767311432424
0.1126286100386038
0.044205769753225294
-0.002502888065006462
-0.7691644141843859
-0.24490583301812296
-0.18370618431670466
-0.13047358575428006
-0.0865003047296978
-0.051866465959642116
-0.025880585536045553
-0.37610528327960735
-0.2780923602610641
0.17456672935631118
0.1572353390680477
0.8711731988247039
0.6742105992675829
0.4962958363323065
0.7132287849999847
0.50428072032816
0.7009874791337305
0.8489292683272348
2.7977617554227225
2.8077759176535215
3.855974822682664
3.502557106129904
3.8974261795957013
3.7861761797723235
2.9161041252177218
2.951943748430882
2.2410155379507897
4.64308191881008
6.505719385471321
1.2434584541106384
0.7942872888029636
0.8957506176372193
0.6788579327442102
0.19876074207404992
-0.12012378200346331
0.056790799865076624
-0.1252639627637027
-0.2302447508389457
-0.2782264070031012
-0.2864113350711176
0.09986458129794751
0.41524635036874347
0.2921266453815356
0.19118849120369685
0.1122739206904019
0.053533317621433846
0.3808823550490135
0.6367344393827379
0.8271207250172516
0.9610503639663801
0.6800104457220238
0.4485556904358598
0.26679502436545
0.4995350465610538
0.3175452940356627
0.17742202652729927
0.443549463422222
0.6557722810140737
0.4484158670308225
0.2818799239459201
0.5230329480099151
0.7131736960340108
0.4873157248504907
0.30600869701059674
0.5359193749889244
0.3492524926718717
0.20365718553084536
0.46424552760071547
0.30264073887687915
0.5452573125135394
0.7345561769618837
0.5064677627176591
0.32223089559144336
0.5490029869762394
0.35931511021797236
0.5796993688541245
0.3835397769311924
0.22922728723939215
0.4822806735603613
0.6831722656920959
0.8351715098215726
0.5755409171939263
0.7345891042647784
0.48740040637204574
0.2926202698992133
0.5150889705186665
0.6940652397033464
0.09399095836333926
-0.0030812019459003394
-0.06411937004657184
-0.09755898175285338
0.257767995190385
0.5410650188709218
0.3876928201535832
0.26006261736188196
0.15882457951057505
0.08229217109020448
0.027437667090515976
-0.009372800165440058
-0.03186703465808102
0.3251503387663618
0.23547436301113486
0.5288373038427749
3.3322817232600137
0.3114013137072824
5.276529883869272
7.629463991512977
7.091137358927158
-5.660970254516153
-6.717488202168689
-6.141960143871151
-7.292952345426229
-5.046822590800935
-3.885730842859397
-0.7113134975206172
7.645514173216143
12.138946660013172
7.540081101478831
4.377751488744332
2.532500916855129
6.6171875108413705
-0.17202040544652775
2.6337075478627416
3.804778581011104
4.71851365263686
3.185070219924153
7.862896418594001
6.669686099677461
3.7813887862107975
2.6046642521953745
0.6282240502037555
2.8585069344693297
-2.6986920484251318
-2.1531439773572005
-1.9268844386428823
-0.5248837339978789
1.3776616378370372
1.02314698156516
0.7180426167201732
-0.26899878700780155
-0.6609824079370261
2.0141065397471634
3.361709716110612
10.610307756066327
7.980319602348029
6.054580002297296
6.280652703459531
5.663703590469095
6.248084034274057
6.67675509373867
0.33671131825230294
0.5950015388707561
-0.5255916991870695
-0.9020455174566708
-7.335700630104348
-5.528881461697589
-4.238144112312046
-2.7178548277237566
-2.9374174193910547
-1.97494394229092
-0.8417152815938811
-0.34864482668843244
0.35902526353770536
0.8567159038790509
1.1822995030623744
1.3733602403640757
1.4643140714111138
1.1161559915593628
0.8076745662129724
0.5487520263390757
0.7103757349022994
0.8354231672168756
0.9274438195520036
0.9913026887049197
1.0323087154455175
1.0556292852325189
1.065931841800654
1.0671973559001393
1.0626571094384984
1.0548123531586424
0.6768184328060163
0.7530951976300249
0.8208676484659271
0.8778863320992776
0.923585581158946
0.5898213818021738
0.7009333485667224
0.42615598409079436
0.5875112239572706
0.3534651102087977
-0.1910623587547467
-0.2304180715779264
-0.2369559466942061
-0.22225600237772555
-0.1953163192413548
-0.16279002048598773
-0.12932119996391472
0.27076966269999936
0.21260740162567332
0.5276822828113942
0.7641214987239406
0.19475802580592538
0.10906754717206527
0.4149902724224289
0.2859192901144099
0.5504035087483439
0.7530988249949901
0.9006807524802283
1.0017426826923739
0.6967197108173108
0.817482774869401
0.5395378163713543
0.3211982398095371
0.1578365842594876
0.042163185608766585
0.3344731852762317
0.5718920969364596
1.1244796214025672
0.8055278171651941
0.5401657540231457
0.6984063276864741
0.8222689728216788
-0.5601583326200044
0.21666956358866807
0.48010034658996226
0.3190302811570438
2.772799930552025
5.026457891012521
8.528918044199738
9.251888662477132
5.184605331447537
10.366893106232736
1.4204680116873831
-1.5561313202085199
-1.4968150130477709
0.2137624068920707
-1.2755252089341158
0.9654251189829646
-11.967260347890752
-9.715811362212115
-9.445355201072488
-5.682684352391808
-2.6173737793786382
-4.291420511729891
-3.0621312641829186
1.9333322294642183
4.621917082981807
-6.764497654186783
-5.027722471822726
-9.062087860706521
-26.45960161700551
-19.353374008698225
-9.93175601922121
-4.243508142322988
-2.4987980153647804
2.329156420032251
8.03980629213528
13.96201799483923
-7.338268353072333
-13.48322745147107
-8.74271422393709
-9.530409406596705
-3.349195163960821
1.9029848450345241
6.230794768886598
8.604566340376197
2.0234818081730843
1.0992938372024192
-2.231762643633326
-2.9495895829805145
6.547760853275756
7.662573557958207
-28.554903725840532
-19.30267993219008
-12.3983417371984
-7.763207602724568
-3.6925594586412616
-3.171748493402915
-4.752193766524387
-11.249069096347146
-7.067151531125101
-5.550048264937782
-0.7028025554760404
-5.141740111102505
-3.1970984473674307
-1.3467069492446464
-0.36075752156955476
0.6590362393531628
0.5925648072193476
0.792749131014869
0.8561401572083684
0.8281349490487944
0.3759689170645827
0.7185549215366072
0.2198238755206341
0.17673300303278583
0.5041730678698297
0.3816002355616571
1.0112707605356577
1.4873501276271994
1.0912657070106255
0.7545053894496758
0.48195456753558763
0.6402819637264681
0.7688177071147428
0.868332731694024
0.941619587198686
0.6238389255505183
0.7423386463040689
0.837621692644546
0.9106769956164631
0.5952087030993041
0.3487567869328726
0.9028303322328068
0.9711141623124312
0.6478315232099688
0.7609514322584947
0.8513592461026421
0.551558938373994
0.3184666388987537
0.14600842713544243
-0.3431542317741857
-0.33547288275492015
0.0647178295325267
0.022990505277876737
0.36350704575285603
0.6290525148858561
0.8261687365007969
0.5957364279926608
0.771613252766465
0.5321069415373691
0.7073109208755898
0.47248899109889214
0.28670095516298866
0.5153168127894324
0.6981557632123949
0.8375676095325952
0.5698000373727024
0.3554810919466336
0.1919337632954406
0.07343394670845774
0.36147496376760546
0.22536708624790724
0.12153371827877395
0.046325797156166276
-0.0048348225382775275
0.3319372176246993
0.5976271210269352
0.05995886096309411
-0.3636977823743401
-0.31302929456330497
0.11251652688701308
-0.28568791566524177
-0.22514939815669568
0.9370175666436524
1.0972517182638428
1.5593688641807568
0.78006134621258
-0.22204768722745616
0.8474709343534723
6.486624198911002
6.378351182832725
4.277593006006972
3.269395659055223
2.0839051569575977
1.9072841161663292
1.8031475953679115
1.0156731618102603
1.543888053817466
3.8364845436285777
2.6651550023258768
3.926035772376994
2.306030419945488
1.389303636549704
1.8062328442768745
1.05823817379762
0.8706225901761817
0.7624580145365977
0.34435990444254083
0.7904202094489456
2.2741905298227945
2.3214360899943864
1.5883504966975293
0.6306544319698241
-0.10351628409399038
-1.0069249521036097
-0.18141910425627805
-0.2243133162314091
1.6098612947690718
0.4563611798111906
0.6390288106004043
1.8890893138367617
1.0025611463995912
1.021142335489221
0.6625067365272198
1.1208281033138725
1.1113412023275535
-0.7469260956843959
0.03356820515162484
-0.05482428451589255
-0.10627159785339683
0.6070654220579657
0.7993945429004227
0.1993811335394643
0.09397359959071497
0.01996168208419759
0.7090234608947241
0.14055360988198884
-0.3089521762544144
-0.2789524326594802
0.13083734151517745
0.45860278294543866
0.33985616382616557
0.23788643778864585
0.5232965134951449
0.003983825766309845
-0.03495089373239183
-0.05675388391518267
-0.8033815940091226
-0.26375665544378524
0.5460143598357592
0.4353881229242785
0.3309543896054995
0.6074141661417787
0.44445373132169397
0.6749466799015925
0.8462872322207524
0.9666701589233052
1.0453177820750086
0.7226820803119809
0.830263139876716
0.5429807340791153
-0.050213547690356575
-0.13148446453194818
0.1963415114473211
0.098471144104163
0.028860189685443495
-0.017379253940245268
-0.04518997569323531
-0.0591566847357292
0.30541253845900634
-0.1466138678937381
-0.49979034644950965
-0.7624997840399017
-0.5785362048174605
-0.0477434459926811
0.3706020202632404
0.6847182243798231
0.5393885951576618
0.4047827506915409
0.2876421199057516
0.5595212451593717
0.3974743264965419
0.6322767508133951
0.4410419954281449
0.6539560580966006
0.8158666338629753
0.9327133633879717
0.6431402937263508
0.7779142589834012
0.8806447897384826
0.5862970918976796
0.7225732598600068
0.4619629960207824
0.2607307767965614
0.4816599768282627
0.6623204473100237
0.4345180046337777
0.25617846145815304
-0.24545075048092857
0.11528352673141051
0.04462910379224576
0.7338505587439493
0.5321951589508553
-0.006084649286783983
-0.4248798676042491
-0.7349673463112274
-0.21441548203546168
-0.5266648418643027
-0.02402853082029177
0.3746571093256977
1.0447258863398667
2.2810236160022628
2.829410737274846
1.714424103660388
3.375646523793357
3.526858816028862
0.63096919884538
2.4108934760923613
3.082384863848372
6.160019947644428
7.750162432491083
7.37860218992145
13.960078164515183
5.640072312325977
2.6728050331760915
1.5343084788027035
0.40442009010473673
0.39634533553044504
7.155019616647218
1.3818758523252948
6.050018440274355
0.8597329731072909
4.54203908696088
5.984558435937119
3.73720149825705
3.048077575906943
1.7923763492215856
-1.354896500153867
-6.660381183637268
-5.062683341340391
-3.203636464078377
-1.9852247215824348
-0.9788328993527997
1.2884898792765729
-2.5155135220297264
-0.35010674459411417
-0.48084837095218746
0.5014221904707064
0.8719266530851439
0.7473210116748172
1.3466497598670146
1.4082400354541758
1.4146860059083484
0.27974758781453657
0.4881663498420017
1.029098132574416
-0.7643786961972552
-0.3102808718036114
1.9239374521871304
2.552235825481572
0.03497610826480191
-0.11082831864195483
-0.5627570492906098
-0.5141208135754163
-0.44256649217193533
0.006457253108284711
0.3688742897428068
0.27913309785323237
0.9376722398596661
1.4378245497334132
1.4295590640539104
1.0215239370142042
1.051446613362997
0.6975632167699839
0.05004042617476534
-0.07349452798098305
0.2230419767141079
0.10329664492992847
0.38817860294718587
0.24795462375255167
0.5084142946738572
0.3432188335598175
0.9490307125397042
0.30893422158420725
0.5382034091961423
0.7196363555059763
0.8564538262721473
0.9542340689425969
1.0196004204215878
1.0593097380120429
0.7109800156688846
0.8032698782438525
0.5084786865384286
0.6506579517716026
0.030802154318716912
0.2949486228295617
0.5177279451946735
0.3280043449428903
0.1821675667963102
0.44431092798707583
0.6539580416013652
0.4451197012312988
-0.09077619342038329
0.23603535120862543
0.13437067539351658
0.4281982045021814
0.6591282082599617
0.46331525135524704
0.30288301665857764
0.17753430068254467
-0.28439238384453835
0.10450076059447821
0.052480164030724974
0.015469023483688518
-0.009125712173761312
0.3447586685502029
0.6202330955615849
0.4556320648053389
0.3155148165645023
0.2019875672327364
0.4829535738320466
0.33272703159514816
